# tau / ps;  MSD / pm^2;  Derivative
0.000000; 0.000000; 9185.568008
1.000000; 9185.568008; 4097.860798
2.000000; 13283.428806; 3304.312098
3.000000; 16587.740904; 3022.429918
4.000000; 19610.170821; 2917.185328
5.000000; 22527.356150; 2790.987743
6.000000; 25318.343893; 2699.855670
7.000000; 28018.199563; 2610.628134
8.000000; 30628.827697; 2547.342513
9.000000; 33176.170210; 2480.778955
10.000000; 35656.949165; 2475.639687
11.000000; 38132.588852; 2449.983809
12.000000; 40582.572661; 2403.565426
13.000000; 42986.138087; 2341.864087
14.000000; 45328.002175; 2343.944348
15.000000; 47671.946522; 2348.302836
16.000000; 50020.249358; 2260.773869
17.000000; 52281.023228; 2225.982054
18.000000; 54507.005282; 2230.830186
19.000000; 56737.835468; 2270.238555
20.000000; 59008.074023; 2198.159064
21.000000; 61206.233087; 2212.340006
22.000000; 63418.573093; 2202.605961
23.000000; 65621.179054; 2204.773718
24.000000; 67825.952772; 2158.543054
25.000000; 69984.495825; 2180.375527
26.000000; 72164.871352; 2184.633439
27.000000; 74349.504791; 2080.073997
28.000000; 76429.578788; 2119.137072
29.000000; 78548.715860; 2098.337612
30.000000; 80647.053472; 2116.355199
31.000000; 82763.408671; 2145.341663
32.000000; 84908.750334; 2098.962874
33.000000; 87007.713208; 2052.421931
34.000000; 89060.135139; 2128.725356
35.000000; 91188.860495; 2040.725595
36.000000; 93229.586090; 2072.196435
37.000000; 95301.782525; 1973.077479
38.000000; 97274.860004; 1987.180170
39.000000; 99262.040174; 2012.356400
40.000000; 101274.396574; 2002.495724
41.000000; 103276.892299; 2009.611499
42.000000; 105286.503798; 2045.968070
43.000000; 107332.471868; 2039.398162
44.000000; 109371.870029; 1995.320146
45.000000; 111367.190176; 2060.462896
46.000000; 113427.653072; 2053.074627
47.000000; 115480.727699; 2011.232184
48.000000; 117491.959884; 1937.807855
49.000000; 119429.767739; 1962.414117
50.000000; 121392.181856; 1977.290767
51.000000; 123369.472623; 1995.365957
52.000000; 125364.838580; 1955.581980
53.000000; 127320.420560; 1938.786564
54.000000; 129259.207124; 1948.186327
55.000000; 131207.393451; 1942.228072
56.000000; 133149.621522; 1988.314266
57.000000; 135137.935788; 1940.084878
58.000000; 137078.020666; 1911.549219
59.000000; 138989.569885; 1928.607795
60.000000; 140918.177680; 1964.983749
61.000000; 142883.161429; 1911.031364
62.000000; 144794.192793; 1943.366925
63.000000; 146737.559718; 2002.526258
64.000000; 148740.085977; 1998.867174
65.000000; 150738.953150; 1954.806281
66.000000; 152693.759431; 1973.747114
67.000000; 154667.506545; 1994.625810
68.000000; 156662.132354; 2010.454581
69.000000; 158672.586935; 1942.928186
70.000000; 160615.515122; 1946.478473
71.000000; 162561.993595; 1951.906070
72.000000; 164513.899665; 1907.337459
73.000000; 166421.237124; 1873.077777
74.000000; 168294.314901; 1942.994202
75.000000; 170237.309103; 1949.304750
76.000000; 172186.613852; 1951.160801
77.000000; 174137.774654; 1938.430127
78.000000; 176076.204780; 1938.325856
79.000000; 178014.530636; 1925.882815
80.000000; 179940.413451; 1998.581563
81.000000; 181938.995015; 2010.819451
82.000000; 183949.814466; 1974.010197
83.000000; 185923.824663; 1988.317305
84.000000; 187912.141969; 1948.242074
85.000000; 189860.384043; 2000.870972
86.000000; 191861.255015; 1964.028504
87.000000; 193825.283519; 1988.269856
88.000000; 195813.553374; 1991.467883
89.000000; 197805.021257; 1989.076955
90.000000; 199794.098212; 2024.033592
91.000000; 201818.131805; 1985.845884
92.000000; 203803.977689; 1954.375637
93.000000; 205758.353326; 1981.646887
94.000000; 207740.000213; 1976.615018
95.000000; 209716.615231; 1979.343500
96.000000; 211695.958732; 1932.230044
97.000000; 213628.188776; 1931.194011
98.000000; 215559.382787; 1908.545271
99.000000; 217467.928058; 1990.729537
100.000000; 219458.657595; 1981.490183
101.000000; 221440.147778; 1957.451492
102.000000; 223397.599270; 1929.415213
103.000000; 225327.014484; 1895.906022
104.000000; 227222.920506; 1945.187419
105.000000; 229168.107925; 1923.743555
106.000000; 231091.851481; 1938.049808
107.000000; 233029.901289; 1977.151785
108.000000; 235007.053074; 1942.942445
109.000000; 236949.995518; 2023.030344
110.000000; 238973.025862; 2003.640305
111.000000; 240976.666167; 1972.112366
112.000000; 242948.778533; 1993.161003
113.000000; 244941.939536; 2036.997217
114.000000; 246978.936754; 1996.249755
115.000000; 248975.186508; 2013.715757
116.000000; 250988.902265; 2003.503403
117.000000; 252992.405668; 1970.637316
118.000000; 254963.042984; 1997.913512
119.000000; 256960.956496; 1988.419066
120.000000; 258949.375563; 1977.857420
121.000000; 260927.232983; 2063.605595
122.000000; 262990.838578; 2033.273186
123.000000; 265024.111763; 2009.059898
124.000000; 267033.171661; 1984.145441
125.000000; 269017.317102; 2043.277307
126.000000; 271060.594409; 2012.353049
127.000000; 273072.947458; 1996.443488
128.000000; 275069.390946; 1984.288054
129.000000; 277053.679000; 2016.748540
130.000000; 279070.427540; 1984.774097
131.000000; 281055.201637; 1964.756158
132.000000; 283019.957795; 1918.837770
133.000000; 284938.795565; 1938.522261
134.000000; 286877.317826; 1902.165921
135.000000; 288779.483747; 1910.127684
136.000000; 290689.611431; 1869.629623
137.000000; 292559.241054; 1902.863772
138.000000; 294462.104826; 1872.046604
139.000000; 296334.151430; 1834.453268
140.000000; 298168.604698; 1933.721397
141.000000; 300102.326095; 1979.313786
142.000000; 302081.639881; 1932.453441
143.000000; 304014.093323; 1898.076351
144.000000; 305912.169674; 1936.458933
145.000000; 307848.628606; 1961.895893
146.000000; 309810.524500; 1869.739186
147.000000; 311680.263686; 1887.048803
148.000000; 313567.312489; 1950.211048
149.000000; 315517.523537; 1891.991031
150.000000; 317409.514568; 1920.356044
151.000000; 319329.870612; 1963.603150
152.000000; 321293.473762; 1879.381229
153.000000; 323172.854990; 1933.931210
154.000000; 325106.786200; 1854.344068
155.000000; 326961.130268; 1945.027849
156.000000; 328906.158116; 1920.591811
157.000000; 330826.749927; 1868.410111
158.000000; 332695.160038; 1953.094700
159.000000; 334648.254738; 1929.369783
160.000000; 336577.624521; 1961.851150
161.000000; 338539.475671; 1972.626518
162.000000; 340512.102188; 1907.874306
163.000000; 342419.976494; 1916.218175
164.000000; 344336.194669; 1875.718233
165.000000; 346211.912902; 1875.473067
166.000000; 348087.385969; 1883.188215
167.000000; 349970.574184; 1870.023825
168.000000; 351840.598009; 1905.997747
169.000000; 353746.595756; 1823.819458
170.000000; 355570.415214; 1776.961956
171.000000; 357347.377170; 1818.914642
172.000000; 359166.291811; 1779.018060
173.000000; 360945.309871; 1832.661892
174.000000; 362777.971763; 1811.982531
175.000000; 364589.954294; 1785.401348
176.000000; 366375.355642; 1759.898918
177.000000; 368135.254560; 1755.565696
178.000000; 369890.820255; 1807.172486
179.000000; 371697.992741; 1739.947271
180.000000; 373437.940012; 1737.329799
181.000000; 375175.269811; 1763.761856
182.000000; 376939.031667; 1772.237941
183.000000; 378711.269608; 1835.285667
184.000000; 380546.555275; 1815.329725
185.000000; 382361.885000; 1849.576956
186.000000; 384211.461956; 1900.599102
187.000000; 386112.061058; 1811.333725
188.000000; 387923.394783; 1817.880168
189.000000; 389741.274951; 1769.946189
190.000000; 391511.221140; 1806.856311
191.000000; 393318.077451; 1831.076651
192.000000; 395149.154102; 1808.861541
193.000000; 396958.015643; 1820.520372
194.000000; 398778.536015; 1807.128249
195.000000; 400585.664264; 1781.920804
196.000000; 402367.585068; 1719.901705
197.000000; 404087.486773; 1674.638260
198.000000; 405762.125033; 1748.336226
199.000000; 407510.461259; 1828.487797
200.000000; 409338.949056; 1761.305202
201.000000; 411100.254258; 1731.216071
202.000000; 412831.470329; 1744.624556
203.000000; 414576.094885; 1754.864130
204.000000; 416330.959015; 1719.003485
205.000000; 418049.962500; 1703.951570
206.000000; 419753.914071; 1679.311296
207.000000; 421433.225367; 1669.879729
208.000000; 423103.105096; 1711.267919
209.000000; 424814.373015; 1776.810777
210.000000; 426591.183792; 1687.564296
211.000000; 428278.748088; 1771.186332
212.000000; 430049.934420; 1696.549235
213.000000; 431746.483655; 1757.904108
214.000000; 433504.387763; 1714.071014
215.000000; 435218.458777; 1813.967702
216.000000; 437032.426479; 1796.411046
217.000000; 438828.837525; 1732.234360
218.000000; 440561.071885; 1804.259640
219.000000; 442365.331525; 1795.830517
220.000000; 444161.162043; 1767.322603
221.000000; 445928.484646; 1768.122851
222.000000; 447696.607496; 1712.041440
223.000000; 449408.648936; 1706.497594
224.000000; 451115.146530; 1689.606744
225.000000; 452804.753274; 1749.949457
226.000000; 454554.702731; 1732.228845
227.000000; 456286.931576; 1738.851697
228.000000; 458025.783273; 1726.137431
229.000000; 459751.920704; 1637.403080
230.000000; 461389.323784; 1713.354983
231.000000; 463102.678766; 1749.474636
232.000000; 464852.153402; 1680.968112
233.000000; 466533.121514; 1711.007337
234.000000; 468244.128851; 1729.569785
235.000000; 469973.698637; 1682.211956
236.000000; 471655.910593; 1646.445283
237.000000; 473302.355876; 1682.612000
238.000000; 474984.967876; 1724.959277
239.000000; 476709.927153; 1703.122503
240.000000; 478413.049657; 1810.322829
241.000000; 480223.372485; 1706.175779
242.000000; 481929.548265; 1692.334428
243.000000; 483621.882693; 1751.121208
244.000000; 485373.003901; 1786.396408
245.000000; 487159.400309; 1833.157017
246.000000; 488992.557326; 1792.707791
247.000000; 490785.265117; 1816.462323
248.000000; 492601.727440; 1802.909028
249.000000; 494404.636468; 1758.202870
250.000000; 496162.839338; 1782.011596
251.000000; 497944.850934; 1766.558045
252.000000; 499711.408979; 1755.291203
253.000000; 501466.700182; 1787.768332
254.000000; 503254.468514; 1796.018515
255.000000; 505050.487029; 1797.985935
256.000000; 506848.472964; 1753.856088
257.000000; 508602.329052; 1820.702826
258.000000; 510423.031878; 1820.943727
259.000000; 512243.975606; 1827.837605
260.000000; 514071.813211; 1790.975401
261.000000; 515862.788612; 1826.775232
262.000000; 517689.563844; 1846.353811
263.000000; 519535.917654; 1846.473508
264.000000; 521382.391163; 1775.755371
265.000000; 523158.146534; 1860.229204
266.000000; 525018.375738; 1861.029202
267.000000; 526879.404940; 1843.420507
268.000000; 528722.825448; 1841.172719
269.000000; 530563.998166; 1818.193921
270.000000; 532382.192087; 1789.001926
271.000000; 534171.194013; 1763.892890
272.000000; 535935.086904; 1818.513017
273.000000; 537753.599921; 1778.810823
274.000000; 539532.410744; 1794.748601
275.000000; 541327.159344; 1815.668263
276.000000; 543142.827607; 1809.295908
277.000000; 544952.123516; 1811.610751
278.000000; 546763.734267; 1764.207794
279.000000; 548527.942061; 1720.909093
280.000000; 550248.851154; 1781.572929
281.000000; 552030.424083; 1738.677479
282.000000; 553769.101561; 1719.374570
283.000000; 555488.476132; 1677.232117
284.000000; 557165.708249; 1716.960563
285.000000; 558882.668811; 1706.224011
286.000000; 560588.892823; 1731.527240
287.000000; 562320.420062; 1710.221008
288.000000; 564030.641070; 1718.499172
289.000000; 565749.140242; 1852.465881
290.000000; 567601.606123; 1856.974530
291.000000; 569458.580653; 1744.323155
292.000000; 571202.903808; 1728.087304
293.000000; 572930.991112; 1779.052990
294.000000; 574710.044102; 1761.094685
295.000000; 576471.138787; 1699.904368
296.000000; 578171.043155; 1711.565178
297.000000; 579882.608333; 1759.385653
298.000000; 581641.993986; 1692.027958
299.000000; 583334.021943; 0.000000
