# tau / ps;  MSD / pm^2;  Derivative
0.000000; 0.000000; 33297.066021
0.060000; 1997.823961; 25627.234774
0.120000; 3535.458048; 22112.909460
0.180000; 4862.232615; 18590.070571
0.240000; 5977.636850; 16308.071079
0.300000; 6956.121114; 14852.741129
0.360000; 7847.285582; 13758.385016
0.420000; 8672.788683; 12824.517992
0.480000; 9442.259763; 12019.009401
0.540000; 10163.400327; 11344.793266
0.600000; 10844.087923; 10786.887038
0.660000; 11491.301145; 10336.742259
0.720000; 12111.505680; 9939.490590
0.780000; 12707.875116; 9563.823277
0.840000; 13281.704512; 9264.298187
0.900000; 13837.562404; 8974.481519
0.960000; 14376.031295; 8781.457098
1.020000; 14902.918721; 8573.113778
1.080000; 15417.305547; 8408.776927
1.140000; 15921.832163; 8236.688740
1.200000; 16416.033487; 8120.257888
1.260000; 16903.248961; 7947.874177
1.320000; 17380.121411; 7772.741365
1.380000; 17846.485893; 7674.367132
1.440000; 18306.947921; 7567.103730
1.500000; 18760.974145; 7480.993570
1.560000; 19209.833759; 7363.504884
1.620000; 19651.644052; 7228.281482
1.680000; 20085.340941; 7146.041812
1.740000; 20514.103450; 7091.667069
1.800000; 20939.603474; 7023.548837
1.860000; 21361.016404; 6958.335060
1.920000; 21778.516508; 6910.926088
1.980000; 22193.172073; 6856.153637
2.040000; 22604.541291; 6798.717851
2.100000; 23012.464362; 6761.194796
2.160000; 23418.136050; 6689.547502
2.220000; 23819.508900; 6652.816583
2.280000; 24218.677895; 6634.521957
2.340000; 24616.749212; 6598.020286
2.400000; 25012.630430; 6552.033910
2.460000; 25405.752464; 6511.326774
2.520000; 25796.432071; 6475.283437
2.580000; 26184.949077; 6454.640515
2.640000; 26572.227508; 6472.506323
2.700000; 26960.577887; 6445.224720
2.760000; 27347.291370; 6421.858146
2.820000; 27732.602859; 6379.949462
2.880000; 28115.399827; 6334.624373
2.940000; 28495.477289; 6354.268660
3.000000; 28876.733409; 6310.884090
3.060000; 29255.386454; 6303.883950
3.120000; 29633.619491; 6259.805463
3.180000; 30009.207819; 6252.986268
3.240000; 30384.386995; 6241.630052
3.300000; 30758.884798; 6226.311092
3.360000; 31132.463464; 6197.725027
3.420000; 31504.326965; 6202.185627
3.480000; 31876.458103; 6212.236781
3.540000; 32249.192310; 6191.082733
3.600000; 32620.657274; 6162.870414
3.660000; 32990.429499; 6132.935534
3.720000; 33358.405631; 6132.781128
3.780000; 33726.372498; 6083.438654
3.840000; 34091.378818; 6073.732313
3.900000; 34455.802756; 6077.104506
3.960000; 34820.429027; 6074.058171
4.020000; 35184.872517; 6055.322404
4.080000; 35548.191861; 6035.560487
4.140000; 35910.325490; 6007.586292
4.200000; 36270.780668; 6002.906254
4.260000; 36630.955043; 6006.846305
4.320000; 36991.365821; 5963.419843
4.380000; 37349.171012; 5975.545055
4.440000; 37707.703715; 5990.581793
4.500000; 38067.138623; 5986.549775
4.560000; 38426.331609; 5997.276122
4.620000; 38786.168177; 5980.009301
4.680000; 39144.968735; 5931.592323
4.740000; 39500.864274; 5929.929934
4.800000; 39856.660070; 5929.336843
4.860000; 40212.420281; 5892.992739
4.920000; 40565.999845; 5868.401468
4.980000; 40918.103933; 5826.441707
5.040000; 41267.690436; 5840.305447
5.100000; 41618.108763; 5833.737785
5.160000; 41968.133030; 5845.180243
5.220000; 42318.843844; 5801.143637
5.280000; 42666.912462; 5766.314271
5.340000; 43012.891319; 5751.853637
5.400000; 43358.002537; 5711.007571
5.460000; 43700.662991; 5686.322850
5.520000; 44041.842362; 5669.849842
5.580000; 44382.033353; 5672.610239
5.640000; 44722.389967; 5691.966142
5.700000; 45063.907936; 5695.630882
5.760000; 45405.645788; 5686.515839
5.820000; 45746.836739; 5676.888859
5.880000; 46087.450070; 5676.595508
5.940000; 46428.045801; 5657.857279
6.000000; 46767.517238; 5644.290936
6.060000; 47106.174694; 5626.999479
6.120000; 47443.794662; 5602.102081
6.180000; 47779.920787; 5563.794424
6.240000; 48113.748453; 5560.800954
6.300000; 48447.396510; 5562.484745
6.360000; 48781.145595; 5564.573682
6.420000; 49115.020016; 5564.086856
6.480000; 49448.865227; 5596.764214
6.540000; 49784.671080; 5606.067883
6.600000; 50121.035153; 5619.417254
6.660000; 50458.200188; 5606.329139
6.720000; 50794.579936; 5613.696249
6.780000; 51131.401711; 5612.878822
6.840000; 51468.174441; 5602.785105
6.900000; 51804.341547; 5619.968595
6.960000; 52141.539663; 5605.815519
7.020000; 52477.888594; 5577.628857
7.080000; 52812.546325; 5560.680702
7.140000; 53146.187167; 5529.489958
7.200000; 53477.956565; 5531.442049
7.260000; 53809.843088; 5519.885134
7.320000; 54141.036196; 5512.866287
7.380000; 54471.808173; 5516.421630
7.440000; 54802.793471; 5540.829929
7.500000; 55135.243267; 5528.933046
7.560000; 55466.979249; 5513.984129
7.620000; 55797.818297; 5500.245884
7.680000; 56127.833050; 5493.704122
7.740000; 56457.455297; 5487.367276
7.800000; 56786.697334; 5497.753348
7.860000; 57116.562535; 5470.784570
7.920000; 57444.809609; 5468.159536
7.980000; 57772.899181; 5447.900628
8.040000; 58099.773219; 5417.631138
8.100000; 58424.831087; 5386.372884
8.160000; 58748.013460; 5375.744305
8.220000; 59070.558118; 5409.645602
8.280000; 59395.136855; 5413.037079
8.340000; 59719.919079; 5426.207391
8.400000; 60045.491523; 5436.867227
8.460000; 60371.703556; 5434.750011
8.520000; 60697.788557; 5417.173849
8.580000; 61022.818988; 5405.219502
8.640000; 61347.132158; 5383.710027
8.700000; 61670.154760; 5379.880598
8.760000; 61992.947596; 5351.826833
8.820000; 62314.057206; 5361.981861
8.880000; 62635.776117; 5332.927159
8.940000; 62955.751747; 5293.287233
9.000000; 63273.348981; 5263.826657
9.060000; 63589.178580; 5255.434947
9.120000; 63904.504677; 5243.537636
9.180000; 64219.116935; 5259.157045
9.240000; 64534.666358; 5256.722970
9.300000; 64850.069736; 5252.537020
9.360000; 65165.221957; 5250.346767
9.420000; 65480.242763; 5255.337373
9.480000; 65795.563006; 5199.458433
9.540000; 66107.530512; 5221.442702
9.600000; 66420.817074; 5217.358168
9.660000; 66733.858564; 5239.275404
9.720000; 67048.215088; 5251.667993
9.780000; 67363.315168; 5239.061233
9.840000; 67677.658842; 5232.507664
9.900000; 67991.609301; 5231.132405
9.960000; 68305.477246; 5212.875658
10.020000; 68618.249785; 5213.140773
10.080000; 68931.038232; 5213.510680
10.140000; 69243.848872; 5215.639179
10.200000; 69556.787223; 5197.846576
10.260000; 69868.658018; 5223.378045
10.320000; 70182.060700; 5191.575689
10.380000; 70493.555242; 5213.130780
10.440000; 70806.343088; 5203.632747
10.500000; 71118.561053; 5188.441658
10.560000; 71429.867553; 5148.633695
10.620000; 71738.785574; 5112.020129
10.680000; 72045.506782; 5106.600776
10.740000; 72351.902829; 5084.057134
10.800000; 72656.946257; 5075.482443
10.860000; 72961.475203; 5081.076797
10.920000; 73266.339811; 5080.220395
10.980000; 73571.153035; 5070.729107
11.040000; 73875.396781; 5036.733138
11.100000; 74177.600770; 5040.373982
11.160000; 74480.023208; 5015.308330
11.220000; 74780.941708; 4981.897179
11.280000; 75079.855539; 4974.768509
11.340000; 75378.341650; 4990.198101
11.400000; 75677.753536; 5004.822195
11.460000; 75978.042867; 4991.155771
11.520000; 76277.512214; 4974.618090
11.580000; 76575.989299; 4970.335800
11.640000; 76874.209447; 4947.012699
11.700000; 77171.030209; 4960.808431
11.760000; 77468.678715; 4958.097268
11.820000; 77766.164551; 4964.590509
11.880000; 78064.039981; 4980.769100
11.940000; 78362.886127; 4991.812791
12.000000; 78662.394895; 4979.708464
12.060000; 78961.177403; 4955.497346
12.120000; 79258.507243; 4959.223479
12.180000; 79556.060652; 4947.618511
12.240000; 79852.917763; 4926.709530
12.300000; 80148.520335; 4894.492770
12.360000; 80442.189901; 4925.872995
12.420000; 80737.742280; 4898.638001
12.480000; 81031.660560; 4902.067303
12.540000; 81325.784599; 4882.872199
12.600000; 81618.756931; 4897.456459
12.660000; 81912.604318; 4890.154054
12.720000; 82206.013561; 4888.813385
12.780000; 82499.342364; 4882.216443
12.840000; 82792.275351; 4876.797102
12.900000; 83084.883177; 4898.409291
12.960000; 83378.787735; 4880.409900
13.020000; 83671.612329; 4845.917961
13.080000; 83962.367406; 4827.457431
13.140000; 84252.014852; 4818.994274
13.200000; 84541.154509; 4833.749800
13.260000; 84831.179497; 4847.416339
13.320000; 85122.024477; 4813.115831
13.380000; 85410.811427; 4830.483538
13.440000; 85700.640439; 4830.778440
13.500000; 85990.487145; 4843.425744
13.560000; 86281.092690; 4824.955972
13.620000; 86570.590048; 4780.959757
13.680000; 86857.447634; 4785.840329
13.740000; 87144.598054; 4786.419579
13.800000; 87431.783228; 4814.600963
13.860000; 87720.659286; 4814.154432
13.920000; 88009.508552; 4819.557926
13.980000; 88298.682028; 4811.739580
14.040000; 88587.386402; 4830.893104
14.100000; 88877.239989; 4844.864857
14.160000; 89167.931880; 4862.959023
14.220000; 89459.709421; 4894.572708
14.280000; 89753.383784; 4872.557421
14.340000; 90045.737229; 4843.959680
14.400000; 90336.374810; 4814.309069
14.460000; 90625.233354; 4773.891092
14.520000; 90911.666819; 4791.186410
14.580000; 91199.138004; 4775.892395
14.640000; 91485.691548; 4780.985514
14.700000; 91772.550679; 4761.097052
14.760000; 92058.216502; 4765.642915
14.820000; 92344.155077; 4773.614111
14.880000; 92630.571923; 4729.392603
14.940000; 92914.335479; 4694.106830
15.000000; 93195.981889; 4689.875767
15.060000; 93477.374435; 4685.017165
15.120000; 93758.475465; 4705.728344
15.180000; 94040.819166; 4709.582942
15.240000; 94323.394142; 4718.314882
15.300000; 94606.493035; 4728.290585
15.360000; 94890.190470; 4753.903188
15.420000; 95175.424662; 4746.214345
15.480000; 95460.197522; 4753.431693
15.540000; 95745.403424; 4759.958616
15.600000; 96031.000941; 4767.040393
15.660000; 96317.023364; 4769.302267
15.720000; 96603.181500; 4788.674661
15.780000; 96890.501980; 4761.754533
15.840000; 97176.207252; 4760.195083
15.900000; 97461.818957; 4777.490566
15.960000; 97748.468391; 4772.214702
16.020000; 98034.801273; 4767.353231
16.080000; 98320.842467; 4769.564679
16.140000; 98607.016348; 4754.317220
16.200000; 98892.275381; 4749.119780
16.260000; 99177.222568; 4750.635508
16.320000; 99462.260698; 4735.202701
16.380000; 99746.372860; 4717.233355
16.440000; 100029.406862; 4712.995621
16.500000; 100312.186599; 4712.106516
16.560000; 100594.912990; 4683.349732
16.620000; 100875.913974; 4688.031259
16.680000; 101157.195849; 4672.760793
16.740000; 101437.561497; 4661.648226
16.800000; 101717.260390; 4647.693929
16.860000; 101996.122026; 4632.254223
16.920000; 102274.057279; 4616.280247
16.980000; 102551.034094; 4598.037620
17.040000; 102826.916351; 4597.169040
17.100000; 103102.746494; 4584.730439
17.160000; 103377.830320; 4573.488406
17.220000; 103652.239624; 4576.634842
17.280000; 103926.837715; 4598.946371
17.340000; 104202.774497; 4589.696437
17.400000; 104478.156283; 4579.163788
17.460000; 104752.906111; 4576.825579
17.520000; 105027.515645; 4591.991290
17.580000; 105303.035123; 4623.467579
17.640000; 105580.443178; 4646.578653
17.700000; 105859.237897; 4669.331761
17.760000; 106139.397802; 4682.244054
17.820000; 106420.332446; 4705.238557
17.880000; 106702.646759; 4698.441351
17.940000; 106984.553240; 4711.731448
18.000000; 107267.257127; 4724.493201
18.060000; 107550.726719; 4707.993326
18.120000; 107833.206319; 4711.171149
18.180000; 108115.876588; 4740.637534
18.240000; 108400.314840; 4759.451141
18.300000; 108685.881908; 4750.708299
18.360000; 108970.924406; 4764.697038
18.420000; 109256.806228; 4735.840487
18.480000; 109540.956657; 4714.422635
18.540000; 109823.822016; 4707.555499
18.600000; 110106.275346; 4712.115015
18.660000; 110389.002246; 4703.056261
18.720000; 110671.185622; 4695.540040
18.780000; 110952.918025; 4671.703643
18.840000; 111233.220243; 4666.430209
18.900000; 111513.206056; 4640.637555
18.960000; 111791.644309; 4645.041571
19.020000; 112070.346803; 4632.139814
19.080000; 112348.275192; 4621.239470
19.140000; 112625.549560; 4624.938921
19.200000; 112903.045895; 4612.843396
19.260000; 113179.816499; 4581.195702
19.320000; 113454.688241; 4568.889125
19.380000; 113728.821589; 4601.473488
19.440000; 114004.909998; 4606.379480
19.500000; 114281.292767; 4628.208068
19.560000; 114558.985251; 4618.593899
19.620000; 114836.100885; 4607.097348
19.680000; 115112.526726; 4630.610488
19.740000; 115390.363355; 4637.071956
19.800000; 115668.587672; 4631.891427
19.860000; 115946.501158; 4657.554024
19.920000; 116225.954400; 4656.435339
19.980000; 116505.340520; 4638.406103
20.040000; 116783.644886; 4622.082011
20.100000; 117060.969807; 4620.668364
20.160000; 117338.209909; 4624.101003
20.220000; 117615.655969; 4647.612031
20.280000; 117894.512691; 4633.467410
20.340000; 118172.520735; 4644.325374
20.400000; 118451.180258; 4633.627449
20.460000; 118729.197905; 4603.556569
20.520000; 119005.411299; 4600.421583
20.580000; 119281.436594; 4617.383021
20.640000; 119558.479575; 4619.997721
20.700000; 119835.679438; 4587.754620
20.760000; 120110.944715; 4589.309000
20.820000; 120386.303255; 4589.201627
20.880000; 120661.655353; 4576.053157
20.940000; 120936.218542; 4537.800852
21.000000; 121208.486593; 4558.587675
21.060000; 121482.001854; 4557.200631
21.120000; 121755.433892; 4554.714401
21.180000; 122028.716756; 4551.732092
21.240000; 122301.820681; 4565.194672
21.300000; 122575.732362; 4580.094679
21.360000; 122850.538042; 4545.158931
21.420000; 123123.247578; 4547.869164
21.480000; 123396.119728; 4583.027934
21.540000; 123671.101404; 4594.822735
21.600000; 123946.790768; 4566.189146
21.660000; 124220.762117; 4553.395096
21.720000; 124493.965823; 4580.115515
21.780000; 124768.772754; 4592.426548
21.840000; 125044.318347; 4607.458896
21.900000; 125320.765880; 4596.903041
21.960000; 125596.580063; 4574.777113
22.020000; 125871.066690; 4555.814243
22.080000; 126144.415544; 4548.552431
22.140000; 126417.328690; 4557.343571
22.200000; 126690.769304; 4585.119983
22.260000; 126965.876503; 4596.075022
22.320000; 127241.641005; 4618.239079
22.380000; 127518.735349; 4624.670916
22.440000; 127796.215604; 4602.157010
22.500000; 128072.345025; 4546.989763
22.560000; 128345.164411; 4537.651738
22.620000; 128617.423515; 4553.101877
22.680000; 128890.609628; 4537.937393
22.740000; 129162.885871; 4539.939208
22.800000; 129435.282224; 4551.873320
22.860000; 129708.394623; 4552.762398
22.920000; 129981.560367; 4522.253622
22.980000; 130252.895584; 4544.357840
23.040000; 130525.557054; 4554.366397
23.100000; 130798.819038; 4551.714480
23.160000; 131071.921907; 4553.878914
23.220000; 131345.154642; 4538.482051
23.280000; 131617.463565; 4531.532809
23.340000; 131889.355534; 4546.906669
23.400000; 132162.169934; 4544.262886
23.460000; 132434.825707; 4537.236890
23.520000; 132707.059920; 4531.780146
23.580000; 132978.966729; 4507.369366
23.640000; 133249.408891; 4509.954479
23.700000; 133520.006160; 4538.156495
23.760000; 133792.295549; 4562.653727
23.820000; 134066.054773; 4551.997354
23.880000; 134339.174614; 4532.560972
23.940000; 134611.128273; 4507.130430
24.000000; 134881.556098; 4507.821974
24.060000; 135152.025417; 4517.272091
24.120000; 135423.061742; 4522.967504
24.180000; 135694.439792; 4531.416343
24.240000; 135966.324773; 4497.916979
24.300000; 136236.199792; 4490.932059
24.360000; 136505.655715; 4475.263130
24.420000; 136774.171503; 4479.178531
24.480000; 137042.922215; 4472.371992
24.540000; 137311.264535; 4460.819291
24.600000; 137578.913692; 4470.741505
24.660000; 137847.158182; 4432.710526
24.720000; 138113.120814; 4416.541768
24.780000; 138378.113320; 4421.178602
24.840000; 138643.384036; 4399.434554
24.900000; 138907.350109; 4407.258423
24.960000; 139171.785615; 4402.762395
25.020000; 139435.951358; 4377.630797
25.080000; 139698.609206; 4397.129060
25.140000; 139962.436950; 4366.815642
25.200000; 140224.445888; 4362.890799
25.260000; 140486.219336; 4353.558241
25.320000; 140747.432831; 4333.020418
25.380000; 141007.414056; 4321.589569
25.440000; 141266.709430; 4306.745001
25.500000; 141525.114130; 4303.610413
25.560000; 141783.330755; 4297.315180
25.620000; 142041.169666; 4332.182577
25.680000; 142301.100620; 4329.127571
25.740000; 142560.848274; 4352.139933
25.800000; 142821.976670; 4364.972535
25.860000; 143083.875022; 4356.551558
25.920000; 143345.268116; 4371.482987
25.980000; 143607.557095; 4372.687795
26.040000; 143869.918363; 4354.001689
26.100000; 144131.158464; 4387.389038
26.160000; 144394.401806; 4376.411273
26.220000; 144656.986483; 4353.053323
26.280000; 144918.169682; 4341.334888
26.340000; 145178.649776; 4358.032515
26.400000; 145440.131726; 4390.941555
26.460000; 145703.588220; 4394.615322
26.520000; 145967.265139; 4388.675749
26.580000; 146230.585684; 4412.698805
26.640000; 146495.347612; 4415.887807
26.700000; 146760.300881; 4427.149069
26.760000; 147025.929825; 4434.760129
26.820000; 147292.015433; 4437.773569
26.880000; 147558.281847; 4446.352600
26.940000; 147825.063003; 4447.105547
27.000000; 148091.889336; 4404.593584
27.060000; 148356.164951; 4400.125402
27.120000; 148620.172475; 4452.155978
27.180000; 148887.301833; 4428.746705
27.240000; 149153.026636; 4440.455453
27.300000; 149419.453963; 4388.100657
27.360000; 149682.740002; 4386.416418
27.420000; 149945.924987; 4378.917872
27.480000; 150208.660060; 4365.164177
27.540000; 150470.569910; 4373.400476
27.600000; 150732.973939; 4350.067605
27.660000; 150993.977995; 4331.170594
27.720000; 151253.848231; 4334.202472
27.780000; 151513.900379; 4350.338399
27.840000; 151774.920683; 4328.948716
27.900000; 152034.657606; 4366.592989
27.960000; 152296.653185; 4372.716796
28.020000; 152559.016193; 4387.077178
28.080000; 152822.240824; 4380.716468
28.140000; 153085.083812; 4360.952980
28.200000; 153346.740991; 4369.052094
28.260000; 153608.884116; 4380.243278
28.320000; 153871.698713; 4372.364918
28.380000; 154134.040608; 4366.366637
28.440000; 154396.022606; 4384.039291
28.500000; 154659.064964; 4369.972647
28.560000; 154921.263323; 4369.391263
28.620000; 155183.426799; 4346.847924
28.680000; 155444.237674; 4321.865672
28.740000; 155703.549614; 4329.979714
28.800000; 155963.348397; 4328.628837
28.860000; 156223.066127; 4325.834273
28.920000; 156482.616184; 4354.464464
28.980000; 156743.884052; 4376.208264
29.040000; 157006.456547; 4397.567715
29.100000; 157270.310610; 4400.758044
29.160000; 157534.356093; 4412.587444
29.220000; 157799.111340; 4412.533523
29.280000; 158063.863351; 4452.665506
29.340000; 158331.023281; 4427.929558
29.400000; 158596.699055; 4440.854432
29.460000; 158863.150321; 4439.876958
29.520000; 159129.542938; 4437.055507
29.580000; 159395.766269; 4472.293098
29.640000; 159664.103855; 4461.993460
29.700000; 159931.823462; 4447.722869
29.760000; 160198.686834; 4418.851313
29.820000; 160463.817913; 4436.628720
29.880000; 160730.015636; 4437.717522
29.940000; 160996.278688; 4436.973854
30.000000; 161262.497119; 4433.764695
30.060000; 161528.523000; 4442.810927
30.120000; 161795.091656; 4438.654268
30.180000; 162061.410912; 4409.547299
30.240000; 162325.983750; 4391.769119
30.300000; 162589.489897; 4402.268584
30.360000; 162853.626012; 4402.848023
30.420000; 163117.796894; 4399.237520
30.480000; 163381.751145; 4415.056542
30.540000; 163646.654537; 4436.775761
30.600000; 163912.861083; 4421.355024
30.660000; 164178.142384; 4428.286347
30.720000; 164443.839565; 4429.323265
30.780000; 164709.598961; 4438.636222
30.840000; 164975.917135; 4422.808547
30.900000; 165241.285647; 4408.314119
30.960000; 165505.784495; 4407.512574
31.020000; 165770.235249; 4370.711291
31.080000; 166032.477926; 4373.414441
31.140000; 166294.882793; 4354.582609
31.200000; 166556.157749; 4331.347580
31.260000; 166816.038604; 4339.600177
31.320000; 167076.414615; 4353.824001
31.380000; 167337.644055; 4325.246315
31.440000; 167597.158834; 4332.141481
31.500000; 167857.087323; 4371.527856
31.560000; 168119.378994; 4384.649944
31.620000; 168382.457991; 4365.449183
31.680000; 168644.384942; 4358.716464
31.740000; 168905.907929; 4366.582882
31.800000; 169167.902902; 4364.491577
31.860000; 169429.772397; 4351.502010
31.920000; 169690.862518; 4368.101707
31.980000; 169952.948620; 4380.172952
32.040000; 170215.758997; 4356.747358
32.100000; 170477.163839; 4391.345081
