# tau / ps;  MSD / pm^2;  Derivative
0.000000; 0.000000; 18195.754570
0.060000; 1091.745274; 24311.387443
0.120000; 2550.428521; 20264.849266
0.180000; 3766.319477; 16640.482855
0.240000; 4764.748448; 14569.701033
0.300000; 5638.930510; 13222.410130
0.360000; 6432.275118; 12190.819535
0.420000; 7163.724290; 11319.686932
0.480000; 7842.905506; 10594.075722
0.540000; 8478.550049; 10013.612459
0.600000; 9079.366797; 9541.320495
0.660000; 9651.846026; 9142.042741
0.720000; 10200.368591; 8778.408692
0.780000; 10727.073112; 8422.712041
0.840000; 11232.435835; 8137.707839
0.900000; 11720.698305; 7882.214744
0.960000; 12193.631190; 7685.281854
1.020000; 12654.748101; 7511.204722
1.080000; 13105.420384; 7354.923153
1.140000; 13546.715773; 7210.132437
1.200000; 13979.323720; 7082.660272
1.260000; 14404.283336; 6953.083443
1.320000; 14821.468343; 6815.701493
1.380000; 15230.410432; 6724.767842
1.440000; 15633.896503; 6640.479560
1.500000; 16032.325276; 6551.740544
1.560000; 16425.429709; 6456.380417
1.620000; 16812.812534; 6372.180001
1.680000; 17195.143334; 6285.860522
1.740000; 17572.294965; 6226.260633
1.800000; 17945.870603; 6179.341810
1.860000; 18316.631112; 6142.245729
1.920000; 18685.165856; 6105.779224
1.980000; 19051.512609; 6060.933892
2.040000; 19415.168643; 6004.706320
2.100000; 19775.451022; 5954.554265
2.160000; 20132.724278; 5901.860603
2.220000; 20486.835914; 5868.637335
2.280000; 20838.954154; 5860.615542
2.340000; 21190.591086; 5839.574252
2.400000; 21540.965542; 5802.913512
2.460000; 21889.140352; 5763.639217
2.520000; 22234.958705; 5735.026712
2.580000; 22579.060308; 5733.356918
2.640000; 22923.061723; 5739.838617
2.700000; 23267.452040; 5744.995854
2.760000; 23612.151791; 5715.434521
2.820000; 23955.077863; 5680.420860
2.880000; 24295.903114; 5661.328075
2.940000; 24635.582799; 5656.409833
3.000000; 24974.967389; 5639.647369
3.060000; 25313.346231; 5636.708909
3.120000; 25651.548765; 5604.072631
3.180000; 25987.793123; 5585.985723
3.240000; 26322.952267; 5568.703099
3.300000; 26657.074453; 5561.974700
3.360000; 26990.792934; 5553.385301
3.420000; 27323.996053; 5577.380680
3.480000; 27658.638893; 5582.436881
3.540000; 27993.585106; 5570.856108
3.600000; 28327.836473; 5551.588804
3.660000; 28660.931801; 5538.725300
3.720000; 28993.255319; 5524.684789
3.780000; 29324.736406; 5494.688693
3.840000; 29654.417728; 5492.466360
3.900000; 29983.965710; 5487.228923
3.960000; 30313.199445; 5492.704562
4.020000; 30642.761719; 5483.756869
4.080000; 30971.787131; 5455.491356
4.140000; 31299.116612; 5439.336255
4.200000; 31625.476787; 5445.843307
4.260000; 31952.227386; 5442.380825
4.320000; 32278.770235; 5431.276299
4.380000; 32604.646813; 5421.692799
4.440000; 32929.948381; 5452.996038
4.500000; 33257.128143; 5458.671107
4.560000; 33584.648410; 5459.363763
4.620000; 33912.210236; 5448.961501
4.680000; 34239.147926; 5428.942637
4.740000; 34564.884484; 5411.802113
4.800000; 34889.592611; 5409.392975
4.860000; 35214.156189; 5386.782131
4.920000; 35537.363117; 5359.505249
4.980000; 35858.933432; 5335.836995
5.040000; 36179.083652; 5338.127934
5.100000; 36499.371328; 5333.279012
5.160000; 36819.368068; 5332.452733
5.220000; 37139.315232; 5311.905816
5.280000; 37458.029581; 5304.189815
5.340000; 37776.280970; 5287.989701
5.400000; 38093.560352; 5246.448257
5.460000; 38408.347248; 5220.471879
5.520000; 38721.575560; 5195.252228
5.580000; 39033.290694; 5207.200295
5.640000; 39345.722712; 5225.607740
5.700000; 39659.259176; 5236.981185
5.760000; 39973.478047; 5224.821030
5.820000; 40286.967309; 5224.127065
5.880000; 40600.414933; 5228.223137
5.940000; 40914.108321; 5223.374363
6.000000; 41227.510783; 5215.644971
6.060000; 41540.449481; 5202.212884
6.120000; 41852.582254; 5170.981633
6.180000; 42162.841152; 5161.181449
6.240000; 42472.512039; 5152.665972
6.300000; 42781.671997; 5152.042306
6.360000; 43090.794536; 5170.022318
6.420000; 43400.995875; 5185.358472
6.480000; 43712.117383; 5196.516820
6.540000; 44023.908392; 5210.345414
6.600000; 44336.529117; 5236.899077
6.660000; 44650.743062; 5230.526349
6.720000; 44964.574643; 5228.796771
6.780000; 45278.302449; 5231.302678
6.840000; 45592.180610; 5241.702281
6.900000; 45906.682747; 5246.816024
6.960000; 46221.491708; 5223.721386
7.020000; 46534.914991; 5206.899736
7.080000; 46847.328975; 5198.277593
7.140000; 47159.225631; 5176.634949
7.200000; 47469.823728; 5158.903307
7.260000; 47779.357926; 5144.528060
7.320000; 48088.029610; 5137.540265
7.380000; 48396.282026; 5154.829476
7.440000; 48705.571794; 5177.807484
7.500000; 49016.240243; 5173.190299
7.560000; 49326.631661; 5154.936573
7.620000; 49635.927856; 5154.642784
7.680000; 49945.206423; 5154.679275
7.740000; 50254.487179; 5144.076731
7.800000; 50563.131783; 5124.178836
7.860000; 50870.582513; 5120.146117
7.920000; 51177.791280; 5114.009078
7.980000; 51484.631825; 5099.916278
8.040000; 51790.626802; 5061.948844
8.100000; 52094.343732; 5044.525790
8.160000; 52397.015280; 5046.961826
8.220000; 52699.832989; 5057.773328
8.280000; 53003.299389; 5081.378084
8.340000; 53308.182074; 5082.409576
8.400000; 53613.126648; 5091.893663
8.460000; 53918.640268; 5095.356523
8.520000; 54224.361660; 5080.870313
8.580000; 54529.213878; 5068.283104
8.640000; 54833.310865; 5067.627755
8.700000; 55137.368530; 5049.314425
8.760000; 55440.327395; 5042.946709
8.820000; 55742.904198; 5033.678186
8.880000; 56044.924889; 5018.067970
8.940000; 56346.008967; 5004.851173
9.000000; 56646.300038; 4967.586522
9.060000; 56944.355229; 4982.862671
9.120000; 57243.326989; 5001.038044
9.180000; 57543.389272; 4987.716540
9.240000; 57842.652264; 4979.430197
9.300000; 58141.418076; 4972.756444
9.360000; 58439.783463; 4970.243251
9.420000; 58737.998058; 4962.111426
9.480000; 59035.724743; 4936.013831
9.540000; 59331.885573; 4928.917097
9.600000; 59627.620599; 4938.393453
9.660000; 59923.924206; 4952.147714
9.720000; 60221.053069; 4957.078372
9.780000; 60518.477771; 4965.101904
9.840000; 60816.383886; 4959.592030
9.900000; 61113.959407; 4955.793124
9.960000; 61411.306995; 4950.089213
10.020000; 61708.312348; 4941.316391
10.080000; 62004.791331; 4939.493763
10.140000; 62301.160957; 4949.840561
10.200000; 62598.151391; 4948.767076
10.260000; 62895.077415; 4953.708781
10.320000; 63192.299942; 4938.596265
10.380000; 63488.615718; 4944.203443
10.440000; 63785.267924; 4952.502689
10.500000; 64082.418086; 4927.456799
10.560000; 64378.065494; 4896.507103
10.620000; 64671.855920; 4875.534783
10.680000; 64964.388007; 4861.562274
10.740000; 65256.081743; 4839.919903
10.800000; 65546.476938; 4849.368653
10.860000; 65837.439057; 4852.787760
10.920000; 66128.606322; 4844.219206
10.980000; 66419.259475; 4838.433285
11.040000; 66709.565472; 4810.733875
11.100000; 66998.209504; 4799.180007
11.160000; 67286.160305; 4790.077658
11.220000; 67573.564964; 4770.203416
11.280000; 67859.777169; 4752.230012
11.340000; 68144.910970; 4762.372966
11.400000; 68430.653348; 4778.539714
11.460000; 68717.365731; 4781.525691
11.520000; 69004.257272; 4771.429914
11.580000; 69290.543067; 4744.392110
11.640000; 69575.206594; 4736.425428
11.700000; 69859.392119; 4749.577754
11.760000; 70144.366785; 4746.625366
11.820000; 70429.164307; 4767.578345
11.880000; 70715.219007; 4783.061280
11.940000; 71002.202684; 4788.023139
12.000000; 71289.484072; 4792.015700
12.060000; 71577.005014; 4787.648675
12.120000; 71864.263935; 4773.609159
12.180000; 72150.680484; 4773.939451
12.240000; 72437.116852; 4745.870089
12.300000; 72721.869057; 4733.198818
12.360000; 73005.860986; 4720.046626
12.420000; 73289.063784; 4712.835483
12.480000; 73571.833912; 4710.126796
12.540000; 73854.441520; 4688.142850
12.600000; 74135.730091; 4693.422100
12.660000; 74417.335417; 4703.752268
12.720000; 74699.560553; 4710.334575
12.780000; 74982.180628; 4711.899246
12.840000; 75264.894583; 4721.792574
12.900000; 75548.202137; 4717.657481
12.960000; 75831.261586; 4705.421838
13.020000; 76113.586896; 4684.133244
13.080000; 76394.634891; 4664.066979
13.140000; 76674.478910; 4669.145875
13.200000; 76954.627662; 4686.048654
13.260000; 77235.790581; 4674.496996
13.320000; 77516.260401; 4661.394015
13.380000; 77795.944042; 4654.128182
13.440000; 78075.191733; 4672.165587
13.500000; 78355.521668; 4677.801375
13.560000; 78636.189751; 4664.341059
13.620000; 78916.050214; 4647.080447
13.680000; 79194.875041; 4621.758036
13.740000; 79472.180523; 4607.384057
13.800000; 79748.623567; 4620.233763
13.860000; 80025.837592; 4635.040880
13.920000; 80303.940045; 4633.457709
13.980000; 80581.947508; 4628.540223
14.040000; 80859.659921; 4647.849333
14.100000; 81138.530881; 4674.562117
14.160000; 81419.004608; 4692.303101
14.220000; 81700.542794; 4714.312618
14.280000; 81983.401551; 4709.546151
14.340000; 82265.974320; 4691.185966
14.400000; 82547.445478; 4668.789757
14.460000; 82827.572863; 4638.717871
14.520000; 83105.895936; 4647.667829
14.580000; 83384.756005; 4631.636366
14.640000; 83662.654187; 4630.103753
14.700000; 83940.460413; 4636.496528
14.760000; 84218.650204; 4632.875019
14.820000; 84496.622705; 4636.398153
14.880000; 84774.806595; 4623.771535
14.940000; 85052.232887; 4595.258035
15.000000; 85327.948369; 4568.394206
15.060000; 85602.052021; 4576.604207
15.120000; 85876.648274; 4575.687540
15.180000; 86151.189526; 4587.649088
15.240000; 86426.448471; 4599.425785
15.300000; 86702.414018; 4614.737929
15.360000; 86979.298294; 4641.120003
15.420000; 87257.765494; 4664.204469
15.480000; 87537.617762; 4673.843397
15.540000; 87818.048366; 4683.377715
15.600000; 88099.051029; 4673.785682
15.660000; 88379.478170; 4673.669344
15.720000; 88659.898331; 4685.953949
15.780000; 88941.055568; 4682.631187
15.840000; 89222.013439; 4680.253385
15.900000; 89502.828642; 4669.074304
15.960000; 89782.973100; 4668.634748
16.020000; 90063.091185; 4681.181219
16.080000; 90343.962058; 4673.692967
16.140000; 90624.383636; 4653.756763
16.200000; 90903.609042; 4649.739106
16.260000; 91182.593388; 4651.190084
16.320000; 91461.664793; 4646.891807
16.380000; 91740.478302; 4634.387955
16.440000; 92018.541579; 4622.400806
16.500000; 92295.885627; 4622.269147
16.560000; 92573.221776; 4617.127340
16.620000; 92850.249417; 4609.859477
16.680000; 93126.840985; 4591.859467
16.740000; 93402.352553; 4592.118203
16.800000; 93677.879645; 4576.833591
16.860000; 93952.489661; 4546.747671
16.920000; 94225.294521; 4519.265411
16.980000; 94496.450446; 4511.609384
17.040000; 94767.147009; 4512.296915
17.100000; 95037.884824; 4493.671638
17.160000; 95307.505122; 4496.994668
17.220000; 95577.324802; 4504.998149
17.280000; 95847.624691; 4516.742906
17.340000; 96118.629265; 4519.916299
17.400000; 96389.824243; 4512.936858
17.460000; 96660.600455; 4517.442084
17.520000; 96931.646980; 4518.776376
17.580000; 97202.773562; 4535.566829
17.640000; 97474.907572; 4567.214767
17.700000; 97748.940458; 4597.788921
17.760000; 98024.807793; 4627.764449
17.820000; 98302.473660; 4642.364560
17.880000; 98581.015534; 4638.344523
17.940000; 98859.316205; 4641.933226
18.000000; 99137.832199; 4649.425328
18.060000; 99416.797719; 4652.390267
18.120000; 99695.941134; 4664.932413
18.180000; 99975.837079; 4677.673370
18.240000; 100256.497481; 4685.882258
18.300000; 100537.650417; 4697.830124
18.360000; 100819.520224; 4705.908264
18.420000; 101101.874720; 4682.223696
18.480000; 101382.808142; 4635.901139
18.540000; 101660.962210; 4627.261083
18.600000; 101938.597875; 4638.532727
18.660000; 102216.909839; 4659.177622
18.720000; 102496.460496; 4659.724743
18.780000; 102776.043981; 4617.254130
18.840000; 103053.079229; 4595.819681
18.900000; 103328.828409; 4586.472471
18.960000; 103604.016758; 4573.615056
19.020000; 103878.433661; 4573.201918
19.080000; 104152.825776; 4559.246386
19.140000; 104426.380559; 4540.113974
19.200000; 104698.787398; 4542.335070
19.260000; 104971.327502; 4532.253259
19.320000; 105243.262697; 4529.522331
19.380000; 105515.034037; 4534.054396
19.440000; 105787.077301; 4543.214565
19.500000; 106059.670175; 4557.608546
19.560000; 106333.126688; 4552.307527
19.620000; 106606.265139; 4561.789177
19.680000; 106879.972490; 4574.160594
19.740000; 107154.422126; 4605.031150
19.800000; 107430.723995; 4617.517203
19.860000; 107707.775027; 4621.112097
19.920000; 107985.041753; 4621.775926
19.980000; 108262.348308; 4611.099683
20.040000; 108539.014289; 4592.315842
20.100000; 108814.553240; 4594.855423
20.160000; 109090.244565; 4610.584016
20.220000; 109366.879606; 4599.120949
20.280000; 109642.826863; 4608.156157
20.340000; 109919.316232; 4612.617612
20.400000; 110196.073289; 4594.583310
20.460000; 110471.748288; 4590.995077
20.520000; 110747.207992; 4590.477529
20.580000; 111022.636644; 4586.820936
20.640000; 111297.845900; 4573.220297
20.700000; 111572.239118; 4563.825433
20.760000; 111846.068644; 4562.283962
20.820000; 112119.805682; 4556.485699
20.880000; 112393.194824; 4545.211180
20.940000; 112665.907494; 4530.289559
21.000000; 112937.724868; 4528.660028
21.060000; 113209.444470; 4530.338676
21.120000; 113481.264790; 4519.578986
21.180000; 113752.439529; 4519.123573
21.240000; 114023.586944; 4541.216599
21.300000; 114296.059940; 4537.290987
21.360000; 114568.297399; 4527.555910
21.420000; 114839.950753; 4551.083555
21.480000; 115113.015767; 4572.019941
21.540000; 115387.336963; 4572.722712
21.600000; 115661.700326; 4581.157327
21.660000; 115936.569766; 4549.662487
21.720000; 116209.549515; 4555.099306
21.780000; 116482.855473; 4557.976483
21.840000; 116756.334062; 4587.982759
21.900000; 117031.613028; 4585.325151
21.960000; 117306.732537; 4564.823970
22.020000; 117580.621975; 4553.801659
22.080000; 117853.850074; 4535.372576
22.140000; 118125.972429; 4534.398418
22.200000; 118398.036334; 4551.458513
22.260000; 118671.123845; 4574.111093
22.320000; 118945.570510; 4598.419756
22.380000; 119221.475696; 4622.048292
22.440000; 119498.798593; 4597.375059
22.500000; 119774.641097; 4562.902967
22.560000; 120048.415275; 4546.887073
22.620000; 120321.228499; 4542.673458
22.680000; 120593.788907; 4553.338529
22.740000; 120866.989219; 4537.524745
22.800000; 121139.240703; 4531.850705
22.860000; 121411.151746; 4532.160378
22.920000; 121683.081368; 4518.885894
22.980000; 121954.214522; 4546.896535
23.040000; 122227.028314; 4568.376899
23.100000; 122501.130928; 4568.471305
23.160000; 122775.239206; 4551.841306
23.220000; 123048.349685; 4547.119330
23.280000; 123321.176844; 4540.342591
23.340000; 123593.597400; 4550.791156
23.400000; 123866.644869; 4545.453980
23.460000; 124139.372108; 4542.795798
23.520000; 124411.939856; 4551.447979
23.580000; 124685.026735; 4534.001543
23.640000; 124957.066827; 4536.095403
23.700000; 125229.232551; 4560.588402
23.760000; 125502.867856; 4572.201393
23.820000; 125777.199939; 4565.613808
23.880000; 126051.136768; 4562.086708
23.940000; 126324.861970; 4550.510395
24.000000; 126597.892594; 4542.037203
24.060000; 126870.414826; 4535.316850
24.120000; 127142.533837; 4528.612401
24.180000; 127414.250581; 4520.384450
24.240000; 127685.473648; 4520.728157
24.300000; 127956.717338; 4517.007298
24.360000; 128227.737775; 4531.798415
24.420000; 128499.645680; 4511.700050
24.480000; 128770.347683; 4480.595466
24.540000; 129039.183411; 4479.386084
24.600000; 129307.946576; 4481.099276
24.660000; 129576.812533; 4445.752472
24.720000; 129843.557681; 4427.703824
24.780000; 130109.219911; 4447.653831
24.840000; 130376.079141; 4456.992680
24.900000; 130643.498701; 4439.643440
24.960000; 130909.877308; 4427.181639
25.020000; 131175.508206; 4428.369535
25.080000; 131441.210378; 4431.400153
25.140000; 131707.094387; 4416.088352
25.200000; 131972.059688; 4392.161490
25.260000; 132235.589378; 4363.726692
25.320000; 132497.412979; 4356.643586
25.380000; 132758.811595; 4349.159168
25.440000; 133019.761145; 4334.641795
25.500000; 133279.839652; 4331.157845
25.560000; 133539.709123; 4323.868225
25.620000; 133799.141217; 4342.827871
25.680000; 134059.710889; 4355.532624
25.740000; 134321.042846; 4354.619397
25.800000; 134582.320010; 4370.515447
25.860000; 134844.550937; 4398.853607
25.920000; 135108.482153; 4421.138376
25.980000; 135373.750456; 4414.806352
26.040000; 135638.638837; 4404.240500
26.100000; 135902.893267; 4404.628355
26.160000; 136167.170968; 4405.725486
26.220000; 136431.514497; 4401.089600
26.280000; 136695.579873; 4392.375129
26.340000; 136959.122381; 4403.360390
26.400000; 137223.324005; 4433.294195
26.460000; 137489.321656; 4436.803710
26.520000; 137755.529879; 4424.739209
26.580000; 138021.014231; 4441.972080
26.640000; 138287.532556; 4468.414916
26.700000; 138555.637451; 4465.683608
26.760000; 138823.578468; 4472.028877
26.820000; 139091.900200; 4478.981309
26.880000; 139360.639079; 4486.816741
26.940000; 139629.848083; 4467.797221
27.000000; 139897.915917; 4450.406889
27.060000; 140164.940330; 4453.872060
27.120000; 140432.172654; 4485.108186
27.180000; 140701.279145; 4486.215104
27.240000; 140970.452051; 4466.801311
27.300000; 141238.460130; 4431.422558
27.360000; 141504.345483; 4412.377917
27.420000; 141769.088158; 4421.589677
27.480000; 142034.383539; 4416.115343
27.540000; 142299.350459; 4415.046476
27.600000; 142564.253248; 4386.418821
27.660000; 142827.438377; 4381.546577
27.720000; 143090.331172; 4386.174933
27.780000; 143353.501668; 4372.546345
27.840000; 143615.854448; 4359.932737
27.900000; 143877.450413; 4392.929912
27.960000; 144141.026207; 4406.965054
28.020000; 144405.444111; 4431.760020
28.080000; 144671.349712; 4433.294694
28.140000; 144937.347393; 4398.063352
28.200000; 145201.231195; 4396.105284
28.260000; 145464.997512; 4405.651550
28.320000; 145729.336605; 4395.710077
28.380000; 145993.079209; 4400.410465
28.440000; 146257.103837; 4432.935201
28.500000; 146523.079949; 4422.948828
28.560000; 146788.456879; 4412.447756
28.620000; 147053.203744; 4381.991484
28.680000; 147316.123233; 4356.283136
28.740000; 147577.500221; 4356.601335
28.800000; 147838.896301; 4368.910568
28.860000; 148101.030936; 4367.526831
28.920000; 148363.082545; 4381.175819
28.980000; 148625.953095; 4397.840313
29.040000; 148889.823513; 4421.183159
29.100000; 149155.094503; 4413.450178
29.160000; 149419.901514; 4413.123782
29.220000; 149684.688940; 4453.104749
29.280000; 149951.875225; 4474.860493
29.340000; 150220.366855; 4470.905707
29.400000; 150488.621197; 4472.376680
29.460000; 150756.963798; 4492.531776
29.520000; 151026.515705; 4495.434000
29.580000; 151296.241745; 4508.574971
29.640000; 151566.756243; 4514.217652
29.700000; 151837.609302; 4502.702617
29.760000; 152107.771459; 4476.312809
29.820000; 152376.350228; 4491.226166
29.880000; 152645.823798; 4508.093703
29.940000; 152916.309420; 4493.071814
30.000000; 153185.893729; 4490.961051
30.060000; 153455.351392; 4497.351614
30.120000; 153725.192489; 4489.651973
30.180000; 153994.571607; 4464.560870
30.240000; 154262.445259; 4453.777528
30.300000; 154529.671911; 4439.460428
30.360000; 154796.039536; 4450.446736
30.420000; 155063.066341; 4453.335408
30.480000; 155330.266465; 4474.185197
30.540000; 155598.717577; 4481.079831
30.600000; 155867.582367; 4461.635388
30.660000; 156135.280490; 4450.783187
30.720000; 156402.327481; 4469.076277
30.780000; 156670.472058; 4503.565421
30.840000; 156940.685983; 4496.889000
30.900000; 157210.499323; 4482.004676
30.960000; 157479.419604; 4462.657250
31.020000; 157747.179039; 4439.985900
31.080000; 158013.578193; 4429.366799
31.140000; 158279.340201; 4408.791786
31.200000; 158543.867708; 4389.998882
31.260000; 158807.267641; 4392.971826
31.320000; 159070.845950; 4402.641309
31.380000; 159335.004429; 4396.223455
31.440000; 159598.777836; 4405.290292
31.500000; 159863.095254; 4420.374178
31.560000; 160128.317704; 4431.862956
31.620000; 160394.229482; 4412.077609
31.680000; 160658.954138; 4401.905042
31.740000; 160923.068441; 4397.724296
31.800000; 161186.931899; 4419.033245
31.860000; 161452.073893; 4417.955763
31.920000; 161717.151239; 4411.403895
31.980000; 161981.835473; 4412.088525
32.040000; 162246.560784; 4413.202185
32.100000; 162511.352916; 4431.740055
32.160000; 162777.257319; 4453.134484
