# tau / ps;  MSD / pm^2;  Derivative
0.000000; 0.000000; 36721.299334
0.060000; 2203.277960; 56919.060733
0.120000; 5618.421604; 48217.769113
0.180000; 8511.487751; 36557.395278
0.240000; 10704.931467; 30070.765321
0.300000; 12509.177387; 26256.707146
0.360000; 14084.579815; 23580.179930
0.420000; 15499.390611; 21051.728612
0.480000; 16762.494328; 19029.142317
0.540000; 17904.242867; 17328.701544
0.600000; 18943.964960; 15796.646486
0.660000; 19891.763749; 14604.803283
0.720000; 20768.051946; 13609.887358
0.780000; 21584.645187; 12778.476823
0.840000; 22351.353797; 11988.237450
0.900000; 23070.648044; 11406.573676
0.960000; 23755.042464; 10807.037115
1.020000; 24403.464691; 10330.076299
1.080000; 25023.269269; 9911.107958
1.140000; 25617.935746; 9541.240363
1.200000; 26190.410168; 9155.807766
1.260000; 26739.758634; 8776.601976
1.320000; 27266.354753; 8461.443678
1.380000; 27774.041373; 8178.789314
1.440000; 28264.768732; 7943.911820
1.500000; 28741.403442; 7737.609088
1.560000; 29205.659987; 7505.095763
1.620000; 29655.965733; 7301.054052
1.680000; 30094.028976; 7175.620614
1.740000; 30524.566213; 7159.330211
1.800000; 30954.126025; 7039.532762
1.860000; 31376.497991; 6796.424116
1.920000; 31784.283438; 6575.998950
1.980000; 32178.843375; 6411.635181
2.040000; 32563.541486; 6303.208379
2.100000; 32941.733989; 6195.343119
2.160000; 33313.454576; 6062.269918
2.220000; 33677.190771; 6012.214128
2.280000; 34037.923618; 5916.141369
2.340000; 34392.892101; 5820.867358
2.400000; 34742.144142; 5729.323823
2.460000; 35085.903571; 5785.131427
2.520000; 35433.011457; 5832.311704
2.580000; 35782.950159; 5767.835870
2.640000; 36129.020312; 5732.173049
2.700000; 36472.950695; 5667.851775
2.760000; 36813.021801; 5558.930072
2.820000; 37146.557605; 5457.392922
2.880000; 37474.001181; 5399.690258
2.940000; 37797.982596; 5339.928481
3.000000; 38118.378305; 5295.293615
3.060000; 38436.095922; 5308.367945
3.120000; 38754.597998; 5375.631201
3.180000; 39077.135871; 5367.439271
3.240000; 39399.182227; 5326.340403
3.300000; 39718.762651; 5276.170566
3.360000; 40035.332885; 5209.614245
3.420000; 40347.909740; 5105.873657
3.480000; 40654.262159; 5049.720484
3.540000; 40957.245388; 5005.264032
3.600000; 41257.561230; 4988.028228
3.660000; 41556.842924; 4986.660254
3.720000; 41856.042539; 4973.712911
3.780000; 42154.465314; 4962.385107
3.840000; 42452.208420; 4966.184218
3.900000; 42750.179473; 4967.051538
3.960000; 43048.202565; 4900.704167
4.020000; 43342.244815; 4830.387913
4.080000; 43632.068090; 4816.894722
4.140000; 43921.081774; 4770.939216
4.200000; 44207.338127; 4788.262070
4.260000; 44494.633851; 4764.021107
4.320000; 44780.475117; 4715.146907
4.380000; 45063.383932; 4714.666184
4.440000; 45346.263903; 4738.786151
4.500000; 45630.591072; 4744.277528
4.560000; 45915.247723; 4750.248761
4.620000; 46200.262649; 4738.833315
4.680000; 46484.592648; 4691.767795
4.740000; 46766.098716; 4684.314391
4.800000; 47047.157579; 4735.752676
4.860000; 47331.302740; 4759.516824
4.920000; 47616.873749; 4784.909492
4.980000; 47903.968319; 4746.302450
5.040000; 48188.746466; 4717.644391
5.100000; 48471.805129; 4736.335529
5.160000; 48755.985261; 4636.776789
5.220000; 49034.191868; 4528.018179
5.280000; 49305.872959; 4515.147229
5.340000; 49576.781793; 4450.874522
5.400000; 49843.834264; 4421.595481
5.460000; 50109.129993; 4411.656711
5.520000; 50373.829395; 4496.792493
5.580000; 50643.636945; 4503.906847
5.640000; 50913.871356; 4392.640144
5.700000; 51177.429764; 4327.223900
5.760000; 51437.063198; 4379.476147
5.820000; 51699.831767; 4407.128800
5.880000; 51964.259495; 4454.229937
5.940000; 52231.513291; 4457.895899
6.000000; 52498.987045; 4453.533515
6.060000; 52766.199056; 4446.432237
6.120000; 53032.984991; 4439.928205
6.180000; 53299.380683; 4350.347286
6.240000; 53560.401520; 4249.534034
6.300000; 53815.373562; 4253.318703
6.360000; 54070.572684; 4279.152959
6.420000; 54327.321862; 4234.611742
6.480000; 54581.398566; 4132.548881
6.540000; 54829.351499; 4103.909316
6.600000; 55075.586058; 4093.189291
6.660000; 55321.177416; 4081.032953
6.720000; 55566.039393; 4102.262685
6.780000; 55812.175154; 4105.688514
6.840000; 56058.516465; 3997.455505
6.900000; 56298.363795; 4007.073464
6.960000; 56538.788203; 4125.980813
7.020000; 56786.347052; 4194.821536
7.080000; 57038.036344; 4202.322701
7.140000; 57290.175706; 4203.117845
7.200000; 57542.362776; 4232.751554
7.260000; 57796.327870; 4236.763362
7.320000; 58050.533671; 4220.840581
7.380000; 58303.784106; 4229.065030
7.440000; 58557.528008; 4215.227619
7.500000; 58810.441665; 4137.295280
7.560000; 59058.679382; 4081.895050
7.620000; 59303.593085; 4116.440355
7.680000; 59550.579506; 4233.393987
7.740000; 59804.583145; 4301.658044
7.800000; 60062.682628; 4198.488546
7.860000; 60314.591941; 4060.383850
7.920000; 60558.214972; 4002.356530
7.980000; 60798.356364; 4001.503357
8.040000; 61038.446565; 3970.282727
8.100000; 61276.663529; 3965.433515
8.160000; 61514.589540; 3999.747255
8.220000; 61754.574375; 4035.649253
8.280000; 61996.713330; 4103.103408
8.340000; 62242.899535; 4120.311463
8.400000; 62490.118222; 4081.388952
8.460000; 62735.001559; 4006.289274
8.520000; 62975.378916; 4029.475858
8.580000; 63217.147467; 4014.952113
8.640000; 63458.044594; 4030.560439
8.700000; 63699.878221; 4101.644065
8.760000; 63945.976864; 4045.830731
8.820000; 64188.726708; 3953.122884
8.880000; 64425.914081; 3871.167460
8.940000; 64658.184129; 3802.010221
9.000000; 64886.304742; 3684.612827
9.060000; 65107.381512; 3553.420786
9.120000; 65320.586759; 3506.510467
9.180000; 65530.977387; 3636.236052
9.240000; 65749.151550; 3763.654430
9.300000; 65974.970816; 3764.864548
9.360000; 66200.862689; 3742.044609
9.420000; 66425.385365; 3741.731000
9.480000; 66649.889225; 3746.693512
9.540000; 66874.690836; 3773.081204
9.600000; 67101.075708; 3757.092443
9.660000; 67326.501255; 3781.281386
9.720000; 67553.378138; 3855.496247
9.780000; 67784.707913; 3845.048787
9.840000; 68015.410840; 3745.494441
9.900000; 68240.140506; 3671.935714
9.960000; 68460.456649; 3720.084428
10.020000; 68683.661715; 3738.661368
10.080000; 68907.981397; 3702.289405
10.140000; 69130.118761; 3748.774313
10.200000; 69355.045220; 3773.471852
10.260000; 69581.453531; 3701.116503
10.320000; 69803.520522; 3728.166202
10.380000; 70027.210494; 3812.922354
10.440000; 70255.985835; 3787.667259
10.500000; 70483.245870; 3783.655878
10.560000; 70710.265223; 3717.516856
10.620000; 70933.316234; 3672.410810
10.680000; 71153.660883; 3770.193453
10.740000; 71379.872490; 3800.771819
10.800000; 71607.918799; 3785.196820
10.860000; 71835.030609; 3735.786185
10.920000; 72059.177780; 3699.661092
10.980000; 72281.157445; 3757.207851
11.040000; 72506.589916; 3769.501575
11.100000; 72732.760011; 3765.557528
11.160000; 72958.693462; 3776.916714
11.220000; 73185.308465; 3708.895949
11.280000; 73407.842222; 3697.967346
11.340000; 73629.720263; 3711.034904
11.400000; 73852.382357; 3737.033871
11.460000; 74076.604389; 3762.265421
11.520000; 74302.340315; 3774.197934
11.580000; 74528.792191; 3729.478106
11.640000; 74752.560877; 3710.109789
11.700000; 74975.167464; 3700.853754
11.760000; 75197.218690; 3755.336597
11.820000; 75422.538886; 3748.545968
11.880000; 75647.451644; 3698.275994
11.940000; 75869.348203; 3629.533541
12.000000; 76087.120216; 3644.357322
12.060000; 76305.781655; 3644.857421
12.120000; 76524.473100; 3584.917536
12.180000; 76739.568152; 3545.259760
12.240000; 76952.283738; 3565.445600
12.300000; 77166.210474; 3607.265473
12.360000; 77382.646402; 3696.412709
12.420000; 77604.431165; 3729.079659
12.480000; 77828.175944; 3667.911419
12.540000; 78048.250630; 3574.845432
12.600000; 78262.741355; 3488.380855
12.660000; 78472.044207; 3449.269636
12.720000; 78679.000385; 3425.585373
12.780000; 78884.535507; 3432.732844
12.840000; 79090.499478; 3538.868466
12.900000; 79302.831586; 3596.134835
12.960000; 79518.599676; 3609.579456
13.020000; 79735.174443; 3623.950629
13.080000; 79952.611481; 3706.950503
13.140000; 80175.028511; 3706.596487
13.200000; 80397.424300; 3662.650713
13.260000; 80617.183343; 3643.733149
13.320000; 80835.807332; 3606.115812
13.380000; 81052.174281; 3594.672116
13.440000; 81267.854608; 3633.416787
13.500000; 81485.859615; 3669.290686
13.560000; 81706.017056; 3589.806190
13.620000; 81921.405428; 3573.235714
13.680000; 82135.799570; 3480.455521
13.740000; 82344.626902; 3434.658817
13.800000; 82550.706431; 3447.825053
13.860000; 82757.575934; 3403.864156
13.920000; 82961.807783; 3382.325071
13.980000; 83164.747287; 3400.870808
14.040000; 83368.799536; 3446.340786
14.100000; 83575.579983; 3514.602905
14.160000; 83786.456157; 3571.836380
14.220000; 84000.766340; 3512.897507
14.280000; 84211.540190; 3419.551482
14.340000; 84416.713279; 3342.410062
14.400000; 84617.257883; 3405.795872
14.460000; 84821.605635; 3438.501649
14.520000; 85027.915734; 3377.731346
14.580000; 85230.579615; 3316.815245
14.640000; 85429.588530; 3354.137298
14.700000; 85630.836768; 3428.034284
14.760000; 85836.518825; 3467.393844
14.820000; 86044.562455; 3368.283256
14.880000; 86246.659451; 3254.541466
14.940000; 86441.931939; 3227.774141
15.000000; 86635.598387; 3178.178919
15.060000; 86826.289122; 3180.801395
15.120000; 87017.137206; 3273.781541
15.180000; 87213.564098; 3303.669723
15.240000; 87411.784282; 3375.427992
15.300000; 87614.309961; 3409.170258
15.360000; 87818.860177; 3385.590264
15.420000; 88021.995593; 3352.462363
15.480000; 88223.143334; 3274.143192
15.540000; 88419.591926; 3274.372347
15.600000; 88616.054267; 3295.747122
15.660000; 88813.799094; 3291.735010
15.720000; 89011.303195; 3346.917449
15.780000; 89212.118242; 3416.165062
15.840000; 89417.088145; 3469.830003
15.900000; 89625.277946; 3416.635862
15.960000; 89830.276097; 3334.558485
16.020000; 90030.349606; 3275.372940
16.080000; 90226.871983; 3317.027709
16.140000; 90425.893645; 3367.944258
16.200000; 90627.970301; 3336.191697
16.260000; 90828.141803; 3272.366059
16.320000; 91024.483766; 3273.082536
16.380000; 91220.868718; 3398.905315
16.440000; 91424.803037; 3525.531917
16.500000; 91636.334952; 3604.784825
16.560000; 91852.622042; 3616.290661
16.620000; 92069.599481; 3534.065920
16.680000; 92281.643437; 3328.480812
16.740000; 92481.352285; 3187.733558
16.800000; 92672.616299; 3143.682702
16.860000; 92861.237261; 3213.222901
16.920000; 93054.030635; 3330.176150
16.980000; 93253.841204; 3353.187347
17.040000; 93455.032445; 3262.464417
17.100000; 93650.780310; 3222.755709
17.160000; 93844.145652; 3254.971916
17.220000; 94039.443967; 3327.596953
17.280000; 94239.099784; 3330.225709
17.340000; 94438.913327; 3272.491536
17.400000; 94635.262819; 3279.532655
17.460000; 94832.034778; 3315.095127
17.520000; 95030.940486; 3303.974144
17.580000; 95229.178935; 3259.076215
17.640000; 95424.723508; 3288.350114
17.700000; 95622.024514; 3335.695720
17.760000; 95822.166258; 3391.290527
17.820000; 96025.643689; 3362.215359
17.880000; 96227.376611; 3278.772763
17.940000; 96424.102976; 3199.192881
18.000000; 96616.054549; 3169.318946
18.060000; 96806.213686; 3153.800932
18.120000; 96995.441742; 3210.755447
18.180000; 97188.087069; 3283.084642
18.240000; 97385.072147; 3347.859516
18.300000; 97585.943718; 3371.702346
18.360000; 97788.245859; 3406.146448
18.420000; 97992.614646; 3421.959496
18.480000; 98197.932216; 3437.273349
18.540000; 98404.168617; 3404.668113
18.600000; 98608.448704; 3342.353497
18.660000; 98808.989913; 3311.520358
18.720000; 99007.681135; 3306.327235
18.780000; 99206.060769; 3384.457884
18.840000; 99409.128242; 3384.580698
18.900000; 99612.203084; 3388.843699
18.960000; 99815.533706; 3401.606325
19.020000; 100019.630085; 3332.027337
19.080000; 100219.551725; 3257.808007
19.140000; 100415.020206; 3275.450626
19.200000; 100611.547243; 3309.127430
19.260000; 100810.094889; 3273.939934
19.320000; 101006.531285; 3131.557954
19.380000; 101194.424762; 3057.318565
19.440000; 101377.863876; 3114.288206
19.500000; 101564.721169; 3149.014843
19.560000; 101753.662059; 3130.996177
19.620000; 101941.521830; 3138.918421
19.680000; 102129.856935; 3196.604256
19.740000; 102321.653191; 3221.710209
19.800000; 102514.955803; 3160.149237
19.860000; 102704.564757; 3082.584225
19.920000; 102889.519811; 3066.819534
19.980000; 103073.528983; 3072.085420
20.040000; 103257.854108; 3069.714860
20.100000; 103442.037000; 3103.179035
20.160000; 103628.227742; 3102.850580
20.220000; 103814.398777; 3179.620993
20.280000; 104005.176036; 3260.805414
20.340000; 104200.824361; 3244.417692
20.400000; 104395.489423; 3201.571068
20.460000; 104587.583687; 3216.571269
20.520000; 104780.577963; 3169.319147
20.580000; 104970.737112; 3086.987192
20.640000; 105155.956343; 3102.101300
20.700000; 105342.082421; 3190.335012
20.760000; 105533.502522; 3226.769372
20.820000; 105727.108684; 3215.255259
20.880000; 105920.024000; 3182.141503
20.940000; 106110.952490; 3195.014928
21.000000; 106302.653386; 3229.715383
21.060000; 106496.436309; 3242.209332
21.120000; 106690.968868; 3188.629649
21.180000; 106882.286647; 3173.898162
21.240000; 107072.720537; 3056.096335
21.300000; 107256.086317; 2961.579739
21.360000; 107433.781102; 2940.500641
21.420000; 107610.211140; 2963.366735
21.480000; 107788.013144; 3032.406444
21.540000; 107969.957531; 3027.738477
21.600000; 108151.621839; 2969.881684
21.660000; 108329.814740; 2989.877531
21.720000; 108509.207392; 3105.175723
21.780000; 108695.517936; 3181.392391
21.840000; 108886.401479; 3111.215771
21.900000; 109073.074425; 3090.714355
21.960000; 109258.517287; 3163.497632
22.020000; 109448.327145; 3244.870142
22.080000; 109643.019353; 3196.946701
22.140000; 109834.836155; 3144.833037
22.200000; 110023.526137; 3159.465236
22.260000; 110213.094052; 3178.724238
22.320000; 110403.817506; 3193.929618
22.380000; 110595.453283; 3038.458451
22.440000; 110777.760790; 2938.847816
22.500000; 110954.091659; 2920.953142
22.560000; 111129.348848; 2969.483039
22.620000; 111307.517830; 3005.705915
22.680000; 111487.860185; 2997.934719
22.740000; 111667.736268; 3051.977181
22.800000; 111850.854899; 3156.657624
22.860000; 112040.254356; 3222.330867
22.920000; 112233.594208; 3174.885387
22.980000; 112424.087331; 3194.875465
23.040000; 112615.779859; 3279.915325
23.100000; 112812.574779; 3304.512950
23.160000; 113010.845556; 3286.740149
23.220000; 113208.049965; 3302.696523
23.280000; 113406.211756; 3254.669409
23.340000; 113601.491921; 3193.905998
23.400000; 113793.126281; 3177.790999
23.460000; 113983.793741; 3161.312851
23.520000; 114173.472512; 3110.048911
23.580000; 114360.075446; 3070.717551
23.640000; 114544.318499; 3140.517856
23.700000; 114732.749571; 3214.898579
23.760000; 114925.643485; 3287.079025
23.820000; 115122.868227; 3281.767951
23.880000; 115319.774304; 3212.031332
23.940000; 115512.496184; 3180.579940
24.000000; 115703.330980; 3202.224447
24.060000; 115895.464447; 3188.282820
24.120000; 116086.761416; 3180.039861
24.180000; 116277.563808; 3150.272947
24.240000; 116466.580185; 3194.073116
24.300000; 116658.224572; 3210.920883
24.360000; 116850.879825; 3151.096478
24.420000; 117039.945613; 3087.362383
24.480000; 117225.187356; 3074.177611
24.540000; 117409.638013; 3098.452067
24.600000; 117595.545137; 3121.972920
24.660000; 117782.863512; 3029.884640
24.720000; 117964.656591; 2968.632987
24.780000; 118142.774570; 2939.919496
24.840000; 118319.169740; 2943.529390
24.900000; 118495.781503; 3072.013080
24.960000; 118680.102288; 3109.576074
25.020000; 118866.676852; 3102.827309
25.080000; 119052.846491; 3049.929528
25.140000; 119235.842262; 2965.529829
25.200000; 119413.774052; 2874.633186
25.260000; 119586.252043; 2840.054480
25.320000; 119756.655312; 2869.936531
25.380000; 119928.851504; 2855.531531
25.440000; 120100.183396; 2893.810632
25.500000; 120273.812034; 2987.082899
25.560000; 120453.037008; 3069.373653
25.620000; 120637.199427; 3045.593899
25.680000; 120819.935061; 2944.689141
25.740000; 120996.616409; 2911.944415
25.800000; 121171.333074; 2929.114208
25.860000; 121347.079927; 2885.899027
25.920000; 121520.233868; 2825.261389
25.980000; 121689.749552; 2781.530640
26.040000; 121856.641390; 2750.860100
26.100000; 122021.692996; 2788.736792
26.160000; 122189.017203; 2834.229436
26.220000; 122359.070970; 2923.720200
26.280000; 122534.494182; 2897.133372
26.340000; 122708.322184; 2918.188992
26.400000; 122883.413523; 2995.586580
26.460000; 123063.148718; 2998.152165
26.520000; 123243.037848; 3055.022705
26.580000; 123426.339210; 3106.219974
26.640000; 123612.712409; 3131.678100
26.700000; 123800.613095; 3107.498878
26.760000; 123987.063028; 3068.172013
26.820000; 124171.153348; 3036.050896
26.880000; 124353.316402; 3055.347150
26.940000; 124536.637231; 3057.932743
27.000000; 124720.113196; 3031.355031
27.060000; 124901.994498; 3074.833776
27.120000; 125086.484524; 3090.674651
27.180000; 125271.925003; 3108.940369
27.240000; 125458.461425; 3163.196435
27.300000; 125648.253211; 3112.869628
27.360000; 125835.025389; 2976.429556
27.420000; 126013.611162; 2862.295868
27.480000; 126185.348915; 2828.772998
27.540000; 126355.075294; 2874.307439
27.600000; 126527.533741; 2967.766852
27.660000; 126705.599752; 3016.527302
27.720000; 126886.591390; 3036.882614
27.780000; 127068.804347; 2987.364035
27.840000; 127248.046189; 2960.638004
27.900000; 127425.684469; 2933.447259
27.960000; 127601.691305; 2930.741395
28.020000; 127777.535788; 2970.621979
28.080000; 127955.773107; 3066.968694
28.140000; 128139.791229; 3062.795496
28.200000; 128323.558959; 3056.443056
28.260000; 128506.945542; 3067.807296
28.320000; 128691.013980; 3048.430678
28.380000; 128873.919820; 3055.757630
28.440000; 129057.265278; 3046.310551
28.500000; 129240.043911; 3000.336077
28.560000; 129420.064076; 2937.493771
28.620000; 129596.313702; 2925.730851
28.680000; 129771.857553; 2910.757936
28.740000; 129946.503029; 2994.032513
28.800000; 130126.144980; 3019.811380
28.860000; 130307.333663; 2970.951770
28.920000; 130485.590769; 2937.073712
28.980000; 130661.815192; 2981.976570
29.040000; 130840.733786; 3101.210229
29.100000; 131026.806400; 3179.998100
29.160000; 131217.606286; 3203.745746
29.220000; 131409.831030; 3204.112587
29.280000; 131602.077786; 3166.741497
29.340000; 131792.082275; 3104.232590
29.400000; 131978.336231; 3062.867532
29.460000; 132162.108283; 2971.228864
29.520000; 132340.382015; 2845.602556
29.580000; 132511.118168; 2760.882013
29.640000; 132676.771089; 2807.163385
29.700000; 132845.200892; 2995.892237
29.760000; 133024.954426; 3154.208705
29.820000; 133214.206948; 3154.010867
29.880000; 133403.447600; 3109.667934
29.940000; 133590.027676; 3025.621773
30.000000; 133771.564983; 3013.742532
30.060000; 133952.389535; 2949.505291
30.120000; 134129.359852; 2894.987440
30.180000; 134303.059099; 2863.224589
30.240000; 134474.852574; 2852.666490
30.300000; 134646.012563; 2898.203341
30.360000; 134819.904764; 2913.686782
30.420000; 134994.725971; 2926.650442
30.480000; 135170.324997; 2930.033119
30.540000; 135346.126984; 2912.770034
30.600000; 135520.893186; 2951.319472
30.660000; 135697.972355; 2986.944124
30.720000; 135877.189002; 3081.870867
30.780000; 136062.101254; 3160.539563
30.840000; 136251.733628; 3153.611500
30.900000; 136440.950318; 3006.447891
30.960000; 136621.337191; 2929.606440
31.020000; 136797.113578; 2966.708866
31.080000; 136975.116110; 3052.430833
31.140000; 137158.261960; 3075.244142
31.200000; 137342.776608; 3024.084377
31.260000; 137524.221671; 3041.412229
31.320000; 137706.706405; 2992.394280
31.380000; 137886.250061; 2908.582216
31.440000; 138060.764994; 2955.349510
31.500000; 138238.085965; 3020.248541
31.560000; 138419.300877; 2984.951240
31.620000; 138598.397952; 2939.023020
31.680000; 138774.739333; 2941.007161
31.740000; 138951.199763; 2966.691264
31.800000; 139129.201239; 3086.415744
31.860000; 139314.386183; 3091.562819
31.920000; 139499.879952; 3047.291305
31.980000; 139682.717431; 2963.723928
32.040000; 139860.540866; 2942.110121
32.100000; 140037.067474; 2995.262826
32.160000; 140216.783243; 3026.213270
