# tau / ps;  MSD / pm^2;  Derivative
0.000000; 0.000000; 20098.868370
0.060020; 1206.334080; 26549.731380
0.120040; 2799.848957; 23750.112489
0.180060; 4225.330709; 16888.827769
0.240080; 5238.998151; 9927.103264
0.300100; 5834.822889; 5475.270942
0.360120; 6163.448651; 3806.679058
0.420140; 6391.925528; 3434.048530
0.480160; 6598.037121; 3397.654352
0.540180; 6801.964335; 2994.777503
0.600200; 6981.710881; 2494.295217
0.660220; 7131.418480; 2141.034999
0.720240; 7259.923401; 1957.734925
0.780260; 7377.426651; 1850.567455
0.840280; 7488.497709; 1728.833743
0.900300; 7592.262311; 1638.964510
0.960320; 7690.632961; 1519.766815
1.020340; 7781.849365; 1439.411198
1.080360; 7868.242825; 1369.466053
1.140380; 7950.438177; 1311.578908
1.200400; 8029.159143; 1266.582307
1.260420; 8105.179414; 1218.188960
1.320440; 8178.295115; 1207.905429
1.380460; 8250.793599; 1196.852720
1.440480; 8322.628699; 1147.477066
1.500500; 8391.500273; 1109.555440
1.560520; 8458.095790; 1131.254839
1.620540; 8525.993705; 1122.433177
1.680560; 8593.362145; 1055.754579
1.740580; 8656.728535; 1030.627647
1.800600; 8718.586806; 980.661416
1.860620; 8777.446104; 965.822891
1.920640; 8835.414794; 988.114877
1.980660; 8894.721449; 1020.866170
2.040680; 8955.993837; 1059.282070
2.100700; 9019.571946; 1068.550852
2.160720; 9083.706369; 1084.188998
2.220740; 9148.779392; 1126.511746
2.280760; 9216.392627; 1187.945342
2.340780; 9287.693107; 1243.034401
2.400800; 9362.300031; 1285.781961
2.460820; 9439.472665; 1266.565456
2.520840; 9515.491923; 1263.275548
2.580860; 9591.313722; 1273.793921
2.640880; 9667.766833; 1298.136680
2.700900; 9745.680996; 1287.673058
2.760920; 9822.967133; 1281.941293
2.820940; 9899.909250; 1291.068250
2.880960; 9977.399166; 1306.029276
2.940980; 10055.787043; 1292.542843
3.001000; 10133.365465; 1248.294717
3.061020; 10208.288114; 1196.278392
3.121040; 10280.088743; 1178.399749
3.181060; 10350.816296; 1226.533338
3.241080; 10424.432827; 1277.834370
3.301100; 10501.128445; 1264.552056
3.361120; 10577.026860; 1239.611597
3.421140; 10651.428348; 1221.661008
3.481160; 10724.752442; 1190.365987
3.541180; 10796.198208; 1169.337993
3.601200; 10866.381874; 1170.357292
3.661220; 10936.626719; 1192.779470
3.721240; 11008.217343; 1219.277585
3.781260; 11081.398384; 1221.096665
3.841280; 11154.688605; 1221.177519
3.901300; 11227.983680; 1232.031409
3.961320; 11301.930205; 1235.089305
4.021340; 11376.060265; 1209.109616
4.081360; 11448.631025; 1194.731545
4.141380; 11520.338812; 1183.146754
4.201400; 11591.351280; 1193.401551
4.261420; 11662.979241; 1168.029325
4.321440; 11733.084361; 1123.918275
4.381460; 11800.541936; 1040.139664
4.441480; 11862.971119; 980.690284
4.501500; 11921.832150; 951.916169
4.561520; 11978.966158; 922.766681
4.621540; 12034.350614; 907.166437
4.681560; 12088.798744; 888.571369
4.741580; 12142.130797; 899.037289
4.801600; 12196.091015; 924.099054
4.861620; 12251.555441; 917.796063
4.921640; 12306.641560; 911.055685
4.981660; 12361.323123; 917.652618
5.041680; 12416.400633; 926.214787
5.101700; 12471.992044; 940.070227
5.161720; 12528.415059; 952.438932
5.221740; 12585.580444; 995.276921
5.281760; 12645.316965; 998.203439
5.341780; 12705.229135; 962.273721
5.401800; 12762.984804; 999.749774
5.461820; 12822.989785; 1031.275184
5.521840; 12884.886922; 1078.908571
5.581860; 12949.643014; 1161.028058
5.641880; 13019.327918; 1191.594624
5.701900; 13090.847428; 1155.087538
5.761920; 13160.175782; 1099.122902
5.821940; 13226.145138; 1064.587939
5.881960; 13290.041706; 1047.878546
5.941980; 13352.935377; 1034.422562
6.002000; 13415.021419; 1048.354951
6.062020; 13477.943683; 1089.433387
6.122040; 13543.331475; 1085.058468
6.182060; 13608.456684; 1068.977589
6.242080; 13672.616719; 1057.046612
6.302100; 13736.060657; 1052.031503
6.362120; 13799.203588; 1061.108390
6.422140; 13862.891313; 1061.194340
6.482160; 13926.584198; 1049.666650
6.542180; 13989.585190; 1014.919214
6.602200; 14050.500641; 964.112394
6.662220; 14108.366667; 938.231170
6.722240; 14164.679302; 932.995590
6.782260; 14220.677697; 936.223630
6.842280; 14276.869839; 926.424041
6.902300; 14332.473810; 925.782106
6.962320; 14388.039252; 886.036574
7.022340; 14441.219167; 919.267658
7.082360; 14496.393612; 958.596224
7.142380; 14553.928558; 1019.656329
7.202400; 14615.128330; 1003.496760
7.262420; 14675.358206; 983.984718
7.322440; 14734.416969; 947.550777
7.382460; 14791.288966; 967.664523
7.442480; 14849.368191; 953.396403
7.502500; 14906.591043; 953.485300
7.562520; 14963.819231; 965.364993
7.622540; 15021.760438; 990.195468
7.682560; 15081.191970; 1006.480651
7.742580; 15141.600938; 1012.509939
7.802600; 15202.371785; 999.201134
7.862620; 15262.343837; 977.286964
7.922640; 15321.000601; 969.296750
7.982660; 15379.177792; 972.160324
8.042680; 15437.526854; 993.662413
8.102700; 15497.166472; 976.036993
8.162720; 15555.748213; 950.866665
8.222740; 15612.819230; 936.530686
8.282760; 15669.029802; 951.311327
8.342780; 15726.127507; 954.912609
8.402800; 15783.441362; 942.390412
8.462820; 15840.003635; 945.608236
8.522840; 15896.759041; 963.675775
8.582860; 15954.598861; 983.149237
8.642880; 16013.607478; 951.643765
8.702900; 16070.725137; 932.442056
8.762920; 16126.690309; 911.064360
8.822940; 16181.372392; 919.036281
8.882960; 16236.532950; 960.096712
8.942980; 16294.157954; 961.167814
9.003000; 16351.847247; 975.683278
9.063020; 16410.407757; 944.827147
9.123040; 16467.116282; 934.322120
9.183060; 16523.194296; 915.105340
9.243080; 16578.118918; 885.919812
9.303100; 16631.291826; 889.395578
9.363120; 16684.673348; 911.839074
9.423140; 16739.401929; 907.995778
9.483160; 16793.899836; 922.673381
9.543180; 16849.278692; 932.267488
9.603200; 16905.233387; 968.284756
9.663220; 16963.349838; 942.971553
9.723240; 17019.946991; 910.763582
9.783260; 17074.611021; 908.365014
9.843280; 17129.131089; 901.175926
9.903300; 17183.219668; 905.017509
9.963320; 17237.538819; 926.198799
10.023340; 17293.129271; 943.223852
10.083360; 17349.741566; 942.571661
10.143380; 17406.314717; 930.071812
10.203400; 17462.137628; 902.773199
10.263420; 17516.322075; 876.120825
10.323440; 17568.906847; 897.055410
10.383460; 17622.748113; 882.892697
10.443480; 17675.739332; 894.229054
10.503500; 17729.410960; 923.592401
10.563520; 17784.844976; 934.440889
10.623540; 17840.930118; 916.494864
10.683560; 17895.938140; 905.723174
10.743580; 17950.299645; 899.019927
10.803600; 18004.258821; 896.449941
10.863620; 18058.063746; 924.230028
10.923640; 18113.536033; 950.196146
10.983660; 18170.566805; 970.884228
11.043680; 18228.839277; 964.405534
11.103700; 18286.722897; 958.456250
11.163720; 18344.249441; 954.006491
11.223740; 18401.508910; 959.263330
11.283760; 18459.083896; 973.735497
11.343780; 18517.527500; 964.866400
11.403800; 18575.438781; 928.293261
11.463820; 18631.154943; 934.221174
11.523840; 18687.226898; 937.720561
11.583860; 18743.508886; 952.896760
11.643880; 18800.701749; 974.279856
11.703900; 18859.178026; 990.473895
11.763920; 18918.626270; 988.348615
11.823940; 18977.946953; 994.094808
11.883960; 19037.612524; 984.656298
11.943980; 19096.711595; 968.864099
12.004000; 19154.862818; 970.020404
12.064020; 19213.083443; 971.856626
12.124040; 19271.414277; 948.984659
12.184060; 19328.372337; 900.978243
12.244080; 19382.449051; 882.804051
12.304100; 19435.434950; 853.720858
12.364120; 19486.675276; 843.976156
12.424140; 19537.330725; 837.917931
12.484160; 19587.622559; 872.795543
12.544180; 19640.007747; 908.501461
12.604200; 19694.536005; 914.360282
12.664220; 19749.415909; 903.997154
12.724240; 19803.673818; 882.649901
12.784260; 19856.650465; 848.495665
12.844280; 19907.577175; 842.165757
12.904300; 19958.123964; 867.700303
12.964320; 20010.203336; 911.663482
13.024340; 20064.921378; 944.015474
13.084360; 20121.581187; 953.799172
13.144380; 20178.828213; 952.194351
13.204400; 20235.978918; 961.132059
13.264420; 20293.666065; 962.870712
13.324440; 20351.457565; 987.798005
13.384460; 20410.745201; 969.527108
13.444480; 20468.936218; 956.120509
13.504500; 20526.322571; 989.138709
13.564520; 20585.690676; 1026.329651
13.624540; 20647.290982; 1019.175378
13.684560; 20708.461888; 1012.905831
13.744580; 20769.256496; 974.822683
13.804600; 20827.765354; 935.917602
13.864620; 20883.939128; 900.595545
13.924640; 20937.992873; 912.225872
13.984660; 20992.744669; 905.501243
14.044680; 21047.092854; 898.419535
14.104700; 21101.015995; 878.110061
14.164720; 21153.720160; 882.190230
14.224740; 21206.669218; 864.261559
14.284760; 21258.542197; 859.464800
14.344780; 21310.127274; 854.506884
14.404800; 21361.414777; 829.626492
14.464820; 21411.208959; 813.428736
14.524840; 21460.030952; 810.476218
14.584860; 21508.675735; 821.922809
14.644880; 21558.007542; 841.407556
14.704900; 21608.508823; 857.056199
14.764920; 21659.949336; 891.411978
14.824940; 21713.451883; 935.261977
14.884960; 21769.586307; 904.798679
14.944980; 21823.892324; 876.917349
15.005000; 21876.524903; 872.688542
15.065020; 21928.903669; 857.928032
15.125040; 21980.396510; 873.245609
15.185060; 22032.808711; 891.412255
15.245080; 22086.311275; 932.260592
15.305100; 22142.265555; 959.080801
15.365120; 22199.829585; 995.606159
15.425140; 22259.585867; 978.363730
15.485160; 22318.307258; 943.706458
15.545180; 22374.948520; 908.463475
15.605200; 22429.474497; 902.985310
15.665220; 22483.671676; 907.713915
15.725240; 22538.152665; 896.371813
15.785260; 22591.952901; 861.107573
15.845280; 22643.636577; 849.639138
15.905300; 22694.631919; 853.513235
15.965320; 22745.859783; 861.890460
16.025340; 22797.590448; 854.173121
16.085360; 22848.857919; 835.433777
16.145380; 22899.000654; 848.955388
16.205400; 22949.954957; 893.093263
16.265420; 23003.558414; 946.415820
16.325440; 23060.362292; 993.973847
16.385460; 23120.020602; 1006.317248
16.445480; 23180.419763; 987.679116
16.505500; 23239.700264; 947.461712
16.565520; 23296.566916; 907.917236
16.625540; 23351.060108; 886.453144
16.685560; 23404.265026; 865.654922
16.745580; 23456.221634; 850.973588
16.805600; 23507.297069; 812.191062
16.865620; 23556.044777; 820.534686
16.925640; 23605.293269; 802.103180
16.985660; 23653.435501; 821.795462
17.045680; 23702.759665; 854.760290
17.105700; 23754.062378; 857.076133
17.165720; 23805.504087; 880.524299
17.225740; 23858.353156; 859.959531
17.285760; 23909.967927; 849.257948
17.345780; 23960.940389; 839.085741
17.405800; 24011.302315; 847.438355
17.465820; 24062.165565; 832.022483
17.525840; 24112.103554; 866.746597
17.585860; 24164.125685; 873.713479
17.645880; 24216.565968; 871.844375
17.705900; 24268.894068; 889.027045
17.765920; 24322.253471; 881.721148
17.825940; 24375.174374; 897.656200
17.885960; 24429.051699; 880.248550
17.945980; 24481.884217; 840.591932
18.006000; 24532.336545; 857.722227
18.066020; 24583.817033; 875.431953
18.126040; 24636.360459; 878.840751
18.186060; 24689.108481; 894.086244
18.246080; 24742.771537; 914.644120
18.306100; 24797.668477; 877.217770
18.366120; 24850.319088; 848.734886
18.426140; 24901.260156; 832.910815
18.486160; 24951.251463; 815.645178
18.546180; 25000.206486; 796.587125
18.606200; 25048.017645; 792.009858
18.666220; 25095.554077; 792.471036
18.726240; 25143.118189; 809.730164
18.786260; 25191.718193; 806.052934
18.846280; 25240.097490; 808.706645
18.906300; 25288.636063; 782.809179
18.966320; 25335.620270; 759.745471
19.026340; 25381.220193; 776.358707
19.086360; 25427.817243; 806.050838
19.146380; 25476.196414; 848.307529
19.206400; 25527.111832; 888.466768
19.266420; 25580.437607; 926.471500
19.326440; 25636.044427; 953.441246
19.386460; 25693.269970; 950.353125
19.446480; 25750.310165; 931.967013
19.506500; 25806.246825; 923.720026
19.566520; 25861.688501; 910.004013
19.626540; 25916.306942; 930.462963
19.686560; 25972.153329; 907.054550
19.746580; 26026.594743; 885.662566
19.806600; 26079.752210; 857.728777
19.866620; 26131.233091; 840.272649
19.926640; 26181.666256; 834.687290
19.986660; 26231.764187; 805.437203
20.046680; 26280.106528; 802.094827
20.106700; 26328.248259; 828.021202
20.166720; 26377.946092; 846.425351
20.226740; 26428.748541; 849.466100
20.286760; 26479.733497; 833.879031
20.346780; 26529.782916; 848.166223
20.406800; 26580.689853; 892.173158
20.466820; 26634.238086; 941.362454
20.526840; 26690.738660; 972.577276
20.586860; 26749.112749; 957.488599
20.646880; 26806.581214; 894.276297
20.706900; 26860.255678; 832.319419
20.766920; 26910.211489; 771.697256
20.826940; 26956.528758; 779.244879
20.886960; 27003.299036; 815.621057
20.946980; 27052.252612; 839.496874
21.007000; 27102.639214; 860.842268
21.067020; 27154.306967; 869.946442
21.127040; 27206.521153; 847.130307
21.187060; 27257.365914; 852.052504
21.247080; 27308.506105; 834.150570
21.307100; 27358.571822; 856.376652
21.367120; 27409.971549; 868.475079
21.427140; 27462.097423; 845.400862
21.487160; 27512.838383; 831.880131
21.547180; 27562.767828; 831.076409
21.607200; 27612.649034; 836.858678
21.667220; 27662.877292; 879.887878
21.727240; 27715.688163; 896.723588
21.787260; 27769.509513; 887.593495
21.847280; 27822.782874; 872.847491
21.907300; 27875.171181; 865.908764
21.967320; 27927.143025; 856.368916
22.027340; 27978.542287; 840.325214
22.087360; 28028.978606; 847.805158
22.147380; 28079.863872; 865.832674
22.207400; 28131.831149; 869.430505
22.267420; 28184.014368; 857.065762
22.327440; 28235.455455; 856.774350
22.387460; 28286.879051; 854.536593
22.447480; 28338.168338; 877.434196
22.507500; 28390.831938; 874.759427
22.567520; 28443.334999; 852.794634
22.627540; 28494.519733; 862.858867
22.687560; 28546.308522; 844.486462
22.747580; 28596.994599; 826.720040
22.807600; 28646.614336; 850.135892
22.867620; 28697.639493; 878.764794
22.927640; 28750.382955; 880.482717
22.987660; 28803.229528; 867.876704
23.047680; 28855.319488; 842.592741
23.107700; 28905.891904; 810.958654
23.167720; 28954.565643; 809.552858
23.227740; 29003.155005; 817.304730
23.287760; 29052.209635; 835.648666
23.347780; 29102.365268; 847.146708
23.407800; 29153.211013; 865.840424
23.467820; 29205.178756; 859.712763
23.527840; 29256.778716; 834.984096
23.587860; 29306.894461; 801.667452
23.647880; 29355.010542; 816.268416
23.707900; 29404.002972; 833.538863
23.767920; 29454.031975; 854.440809
23.827940; 29505.315512; 866.361234
23.887960; 29557.314513; 884.518013
23.947980; 29610.403284; 897.722748
24.008000; 29664.284604; 915.426722
24.068020; 29719.228515; 880.456638
24.128040; 29772.073523; 875.870048
24.188060; 29824.643243; 869.438821
24.248080; 29876.826961; 897.680772
24.308100; 29930.705761; 906.534350
24.368120; 29985.115953; 892.504772
24.428140; 30038.684089; 870.189459
24.488160; 30090.912861; 855.249813
24.548180; 30142.244954; 805.121454
24.608200; 30190.568344; 783.074820
24.668220; 30237.568495; 768.989923
24.728240; 30283.723270; 769.935129
24.788260; 30329.934776; 781.991138
24.848280; 30376.869885; 814.156449
24.908300; 30425.735555; 891.070407
24.968320; 30479.217600; 933.117308
25.028340; 30535.223301; 954.001920
25.088360; 30592.482496; 933.942728
25.148380; 30648.537739; 886.292173
25.208400; 30701.732995; 831.602449
25.268420; 30751.645774; 826.672270
25.328440; 30801.262644; 829.317458
25.388460; 30851.038278; 809.251150
25.448480; 30899.609532; 819.614019
25.508500; 30948.802765; 829.531634
25.568520; 30998.591254; 848.878751
25.628540; 31049.540956; 853.674956
25.688560; 31100.778527; 853.186923
25.748580; 31151.986806; 866.092567
25.808600; 31203.969682; 895.647066
25.868620; 31257.726419; 904.915945
25.928640; 31312.039474; 884.709185
25.988660; 31365.139719; 877.321733
26.048680; 31417.796570; 856.315424
26.108700; 31469.192622; 821.473896
26.168720; 31518.497485; 798.121291
26.228740; 31566.400725; 803.483664
26.288760; 31614.625814; 805.379704
26.348780; 31662.964704; 808.620948
26.408800; 31711.498133; 818.861544
26.468820; 31760.646203; 853.665416
26.528840; 31811.883202; 863.701772
26.588860; 31863.722582; 861.847279
26.648880; 31915.450656; 855.916833
26.708900; 31966.822784; 850.802799
26.768920; 32017.887968; 826.172246
26.828940; 32067.474826; 806.082677
26.888960; 32115.855908; 809.657986
26.948980; 32164.451581; 850.852871
27.009000; 32215.519770; 919.797951
27.069020; 32270.726043; 982.710859
27.129040; 32329.708349; 1000.254848
27.189060; 32389.743645; 964.019373
27.249080; 32447.604088; 895.774249
27.309100; 32501.368458; 852.372490
27.369120; 32552.527855; 865.537802
27.429140; 32604.477434; 895.936841
27.489160; 32658.251563; 900.421277
27.549180; 32712.294848; 876.094246
27.609200; 32764.878025; 850.696766
27.669220; 32815.936844; 855.763864
27.729240; 32867.299792; 832.018239
27.789260; 32917.237526; 800.478986
27.849280; 32965.282275; 810.357084
27.909300; 33013.919907; 822.828318
27.969320; 33063.306063; 820.062173
28.029340; 33112.526194; 833.322257
28.089360; 33162.542196; 819.455247
28.149380; 33211.725900; 815.282082
28.209400; 33260.659131; 805.490637
28.269420; 33309.004679; 819.968891
28.329440; 33358.219212; 836.254092
28.389460; 33408.411182; 842.130296
28.449480; 33458.955843; 846.932854
28.509500; 33509.788752; 848.376929
28.569520; 33560.708336; 856.320679
28.629540; 33612.104703; 869.057529
28.689560; 33664.265536; 871.214818
28.749580; 33716.555849; 865.302894
28.809600; 33768.491329; 862.607039
28.869620; 33820.265003; 885.190403
28.929640; 33873.394131; 885.015327
28.989660; 33926.512751; 873.821350
29.049680; 33978.959509; 881.485825
29.109700; 34031.866288; 882.117083
29.169720; 34084.810955; 866.257471
29.229740; 34136.803729; 866.511044
29.289760; 34188.811721; 870.390288
29.349780; 34241.052547; 876.375626
29.409800; 34293.652612; 915.736514
29.469820; 34348.615117; 935.950406
29.529840; 34404.790861; 929.224469
29.589860; 34460.562913; 955.353914
29.649880; 34517.903255; 991.396504
29.709900; 34577.406873; 1002.216568
29.769920; 34637.559912; 971.853291
29.829940; 34695.890546; 935.834426
29.889960; 34752.059328; 876.622704
29.949980; 34804.674223; 817.588363
30.010000; 34853.745877; 796.742495
30.070020; 34901.566361; 806.489850
30.130040; 34949.971882; 818.544045
30.190060; 34999.100896; 811.198268
30.250080; 35047.789016; 802.329039
30.310100; 35095.944805; 774.632936
30.370120; 35142.438273; 753.432273
30.430140; 35187.659278; 723.521681
30.490160; 35231.085050; 718.792683
30.550180; 35274.226987; 738.037550
30.610200; 35318.524000; 761.397498
30.670220; 35364.223078; 796.371982
30.730240; 35412.021325; 831.788904
30.790260; 35461.945295; 891.861946
30.850280; 35515.474849; 926.528510
30.910300; 35571.085090; 945.884643
30.970320; 35627.857086; 976.452947
31.030340; 35686.463792; 958.992608
31.090360; 35744.022528; 915.236221
31.150380; 35798.955006; 901.626680
31.210400; 35853.070639; 883.504044
31.270420; 35906.098552; 864.900038
31.330440; 35958.009852; 836.431413
31.390460; 36008.212466; 819.916276
31.450480; 36057.423841; 816.534022
31.510500; 36106.432213; 816.421381
31.570520; 36155.433824; 832.879421
31.630540; 36205.423247; 862.976002
31.690560; 36257.219067; 870.356532
31.750580; 36309.457866; 887.361255
31.810600; 36362.717288; 859.034715
31.870620; 36414.276552; 846.104980
31.930640; 36465.059773; 838.569552
31.990660; 36515.390717; 814.914237
32.050680; 36564.301870; 816.662078
32.110700; 36613.317928; 812.303041
32.170720; 36662.072356; 816.673348
32.230740; 36711.089090; 831.812254
32.290760; 36761.014462; 791.760558
32.350780; 36808.535931; 809.485747
32.410800; 36857.121265; 798.648724
32.470820; 36905.056161; 783.799377
32.530840; 36952.099800; 805.451971
32.590860; 37000.443027; 840.412078
32.650880; 37050.884560; 865.846659
32.710900; 37102.852677; 872.622501
32.770920; 37155.227479; 875.241448
32.830940; 37207.759471; 839.832476
32.890960; 37258.166216; 821.677581
32.950980; 37307.483305; 836.193606
33.011000; 37357.671645; 847.877113
33.071020; 37408.561229; 893.309324
33.131040; 37462.177655; 908.637697
33.191060; 37516.714089; 913.854113
33.251080; 37571.563613; 903.004741
33.311100; 37625.761958; 883.129499
33.371120; 37678.767390; 849.734629
