# Tau / ps;  Occurrence;  1-exp fit;  2-exp fit;  3-exp fit
0.000000000;  1.000000000; 0.9936807769; 0.9998066622; 0.9999901154
0.01000000000;  0.9899810861; 0.9934050076; 0.9988394867; 0.9968592829
0.02000000000;  0.9845683047; 0.9931293149; 0.9978768584; 0.9938471194
0.03000000000;  0.9808128880; 0.9928536987; 0.9969187514; 0.9909485918
0.04000000000;  0.9776998414; 0.9925781589; 0.9959651399; 0.9881588813
0.05000000000;  0.9749361981; 0.9923026957; 0.9950159981; 0.9854733740
0.06000000000;  0.9727020824; 0.9920273089; 0.9940713005; 0.9828876520
0.07000000000;  0.9703267912; 0.9917519985; 0.9931310217; 0.9803974855
0.08000000000;  0.9680741616; 0.9914767645; 0.9921951365; 0.9779988245
0.09000000000;  0.9658962488; 0.9912016069; 0.9912636196; 0.9756877911
0.1000000000;  0.9638953278; 0.9909265257; 0.9903364462; 0.9734606725
0.1100000000;  0.9620428133; 0.9906515208; 0.9894135914; 0.9713139138
0.1200000000;  0.9604538869; 0.9903765922; 0.9884950306; 0.9692441111
0.1300000000;  0.9589424147; 0.9901017399; 0.9875807391; 0.9672480054
0.1400000000;  0.9575892832; 0.9898269639; 0.9866706927; 0.9653224761
0.1500000000;  0.9563344716; 0.9895522642; 0.9857648670; 0.9634645356
0.1600000000;  0.9551302628; 0.9892776407; 0.9848632380; 0.9616713230
0.1700000000;  0.9540096411; 0.9890030934; 0.9839657816; 0.9599400993
0.1800000000;  0.9529316631; 0.9887286223; 0.9830724740; 0.9582682420
0.1900000000;  0.9519326653; 0.9884542273; 0.9821832915; 0.9566532399
0.2000000000;  0.9509929544; 0.9881799086; 0.9812982106; 0.9550926886
0.2100000000;  0.9500636274; 0.9879056659; 0.9804172078; 0.9535842863
0.2200000000;  0.9491642716; 0.9876314994; 0.9795402599; 0.9521258286
0.2300000000;  0.9482741905; 0.9873574089; 0.9786673435; 0.9507152051
0.2400000000;  0.9474003449; 0.9870833945; 0.9777984359; 0.9493503951
0.2500000000;  0.9465367242; 0.9868094562; 0.9769335139; 0.9480294639
0.2600000000;  0.9457037805; 0.9865355939; 0.9760725550; 0.9467505588
0.2700000000;  0.9448737221; 0.9862618076; 0.9752155364; 0.9455119061
0.2800000000;  0.9440431982; 0.9859880973; 0.9743624356; 0.9443118075
0.2900000000;  0.9432171932; 0.9857144629; 0.9735132304; 0.9431486369
0.3000000000;  0.9424148750; 0.9854409045; 0.9726678983; 0.9420208372
0.3100000000;  0.9416165218; 0.9851674219; 0.9718264174; 0.9409269177
0.3200000000;  0.9408469346; 0.9848940153; 0.9709887656; 0.9398654510
0.3300000000;  0.9400982537; 0.9846206846; 0.9701549211; 0.9388350704
0.3400000000;  0.9393590920; 0.9843474297; 0.9693248621; 0.9378344672
0.3500000000;  0.9386192629; 0.9840742507; 0.9684985671; 0.9368623884
0.3600000000;  0.9379039174; 0.9838011474; 0.9676760145; 0.9359176345
0.3700000000;  0.9371950024; 0.9835281200; 0.9668571830; 0.9349990565
0.3800000000;  0.9365090742; 0.9832551683; 0.9660420514; 0.9341055548
0.3900000000;  0.9358248084; 0.9829822924; 0.9652305985; 0.9332360762
0.4000000000;  0.9351562253; 0.9827094922; 0.9644228033; 0.9323896124
0.4100000000;  0.9345092637; 0.9824367677; 0.9636186450; 0.9315651978
0.4200000000;  0.9338637986; 0.9821641189; 0.9628181029; 0.9307619081
0.4300000000;  0.9332262825; 0.9818915458; 0.9620211562; 0.9299788580
0.4400000000;  0.9326000297; 0.9816190483; 0.9612277845; 0.9292152002
0.4500000000;  0.9319809126; 0.9813466265; 0.9604379674; 0.9284701231
0.4600000000;  0.9313720306; 0.9810742802; 0.9596516846; 0.9277428497
0.4700000000;  0.9307684806; 0.9808020096; 0.9588689160; 0.9270326361
0.4800000000;  0.9301802041; 0.9805298144; 0.9580896414; 0.9263387698
0.4900000000;  0.9295928310; 0.9802576949; 0.9573138411; 0.9256605689
0.5000000000;  0.9290074373; 0.9799856508; 0.9565414950; 0.9249973803
0.5100000000;  0.9284250565; 0.9797136823; 0.9557725837; 0.9243485786
0.5200000000;  0.9278486593; 0.9794417892; 0.9550070874; 0.9237135651
0.5300000000;  0.9272857803; 0.9791699716; 0.9542449867; 0.9230917664
0.5400000000;  0.9267303523; 0.9788982294; 0.9534862623; 0.9224826337
0.5500000000;  0.9261806119; 0.9786265626; 0.9527308949; 0.9218856413
0.5600000000;  0.9256369477; 0.9783549713; 0.9519788653; 0.9213002860
0.5700000000;  0.9250887253; 0.9780834553; 0.9512301545; 0.9207260857
0.5800000000;  0.9245452884; 0.9778120146; 0.9504847437; 0.9201625793
0.5900000000;  0.9240115045; 0.9775406493; 0.9497426139; 0.9196093247
0.6000000000;  0.9234847917; 0.9772693593; 0.9490037465; 0.9190658990
0.6100000000;  0.9229580444; 0.9769981446; 0.9482681230; 0.9185318971
0.6200000000;  0.9224319519; 0.9767270051; 0.9475357248; 0.9180069311
0.6300000000;  0.9219161640; 0.9764559409; 0.9468065335; 0.9174906297
0.6400000000;  0.9213999555; 0.9761849519; 0.9460805308; 0.9169826372
0.6500000000;  0.9208931499; 0.9759140382; 0.9453576987; 0.9164826131
0.6600000000;  0.9203927760; 0.9756431996; 0.9446380190; 0.9159902314
0.6700000000;  0.9198906048; 0.9753724362; 0.9439214738; 0.9155051799
0.6800000000;  0.9193990902; 0.9751017479; 0.9432080452; 0.9150271596
0.6900000000;  0.9189080205; 0.9748311347; 0.9424977154; 0.9145558844
0.7000000000;  0.9184169216; 0.9745605967; 0.9417904669; 0.9140910800
0.7100000000;  0.9179280349; 0.9742901337; 0.9410862821; 0.9136324841
0.7200000000;  0.9174506290; 0.9740197458; 0.9403851434; 0.9131798453
0.7300000000;  0.9169723769; 0.9737494329; 0.9396870337; 0.9127329230
0.7400000000;  0.9165048327; 0.9734791950; 0.9389919355; 0.9122914868
0.7500000000;  0.9160393325; 0.9732090322; 0.9382998319; 0.9118553160
0.7600000000;  0.9155832501; 0.9729389443; 0.9376107056; 0.9114241994
0.7700000000;  0.9151197696; 0.9726689314; 0.9369245399; 0.9109979346
0.7800000000;  0.9146687275; 0.9723989934; 0.9362413178; 0.9105763279
0.7900000000;  0.9142125727; 0.9721291303; 0.9355610225; 0.9101591938
0.8000000000;  0.9137567821; 0.9718593421; 0.9348836375; 0.9097463547
0.8100000000;  0.9133076967; 0.9715896288; 0.9342091461; 0.9093376404
0.8200000000;  0.9128698045; 0.9713199903; 0.9335375319; 0.9089328881
0.8300000000;  0.9124178695; 0.9710504267; 0.9328687784; 0.9085319417
0.8400000000;  0.9119751011; 0.9707809379; 0.9322028696; 0.9081346520
0.8500000000;  0.9115346407; 0.9705115239; 0.9315397890; 0.9077408759
0.8600000000;  0.9110924323; 0.9702421846; 0.9308795207; 0.9073504763
0.8700000000;  0.9106527481; 0.9699729201; 0.9302220487; 0.9069633223
0.8800000000;  0.9102142939; 0.9697037303; 0.9295673570; 0.9065792881
0.8900000000;  0.9097848820; 0.9694346152; 0.9289154298; 0.9061982535
0.9000000000;  0.9093507019; 0.9691655748; 0.9282662515; 0.9058201033
0.9100000000;  0.9089169326; 0.9688966091; 0.9276198063; 0.9054447272
0.9200000000;  0.9084867689; 0.9686277180; 0.9269760788; 0.9050720195
0.9300000000;  0.9080590027; 0.9683589015; 0.9263350534; 0.9047018791
0.9400000000;  0.9076315620; 0.9680901597; 0.9256967149; 0.9043342092
0.9500000000;  0.9072072968; 0.9678214924; 0.9250610478; 0.9039689170
0.9600000000;  0.9067829258; 0.9675528997; 0.9244280372; 0.9036059135
0.9700000000;  0.9063684684; 0.9672843815; 0.9237976678; 0.9032451138
0.9800000000;  0.9059529565; 0.9670159378; 0.9231699246; 0.9028864363
0.9900000000;  0.9055353963; 0.9667475687; 0.9225447927; 0.9025298031
1.000000000;  0.9051208847; 0.9664792740; 0.9219222574; 0.9021751393
1.010000000;  0.9047083856; 0.9662110538; 0.9213023037; 0.9018223733
1.020000000;  0.9043069287; 0.9659429080; 0.9206849171; 0.9014714368
1.030000000;  0.9038963825; 0.9656748366; 0.9200700829; 0.9011222638
1.040000000;  0.9034873312; 0.9654068396; 0.9194577867; 0.9007747917
1.050000000;  0.9030834050; 0.9651389170; 0.9188480140; 0.9004289602
1.060000000;  0.9026862041; 0.9648710688; 0.9182407505; 0.9000847115
1.070000000;  0.9022774483; 0.9646032949; 0.9176359820; 0.8997419905
1.080000000;  0.9018717873; 0.9643355953; 0.9170336943; 0.8994007442
1.090000000;  0.9014808495; 0.9640679700; 0.9164338733; 0.8990609219
1.100000000;  0.9010888597; 0.9638004190; 0.9158365049; 0.8987224751
1.110000000;  0.9006995789; 0.9635329422; 0.9152415753; 0.8983853572
1.120000000;  0.9003140452; 0.9632655396; 0.9146490707; 0.8980495239
1.130000000;  0.8999265522; 0.9629982113; 0.9140589771; 0.8977149322
1.140000000;  0.8995384829; 0.9627309572; 0.9134712811; 0.8973815415
1.150000000;  0.8991605621; 0.9624637772; 0.9128859689; 0.8970493126
1.160000000;  0.8987726817; 0.9621966714; 0.9123030270; 0.8967182078
1.170000000;  0.8983814136; 0.9619296397; 0.9117224420; 0.8963881914
1.180000000;  0.8980105037; 0.9616626821; 0.9111442004; 0.8960592289
1.190000000;  0.8976350402; 0.9613957986; 0.9105682891; 0.8957312874
1.200000000;  0.8972493550; 0.9611289891; 0.9099946948; 0.8954043351
1.210000000;  0.8968694534; 0.9608622537; 0.9094234043; 0.8950783420
1.220000000;  0.8965023459; 0.9605955924; 0.9088544045; 0.8947532789
1.230000000;  0.8961393381; 0.9603290050; 0.9082876826; 0.8944291182
1.240000000;  0.8957675354; 0.9600624916; 0.9077232255; 0.8941058331
1.250000000;  0.8954038137; 0.9597960522; 0.9071610203; 0.8937833983
1.260000000;  0.8950441065; 0.9595296867; 0.9066010545; 0.8934617892
1.270000000;  0.8946767284; 0.9592633952; 0.9060433152; 0.8931409824
1.280000000;  0.8943145335; 0.9589971775; 0.9054877898; 0.8928209556
1.290000000;  0.8939498609; 0.9587310337; 0.9049344657; 0.8925016871
1.300000000;  0.8935903294; 0.9584649638; 0.9043833306; 0.8921831565
1.310000000;  0.8932281037; 0.9581989678; 0.9038343719; 0.8918653440
1.320000000;  0.8928666039; 0.9579330455; 0.9032875774; 0.8915482306
1.330000000;  0.8925015430; 0.9576671971; 0.9027429348; 0.8912317982
1.340000000;  0.8921446562; 0.9574014224; 0.9022004318; 0.8909160294
1.350000000;  0.8917846850; 0.9571357215; 0.9016600565; 0.8906009076
1.360000000;  0.8914257866; 0.9568700943; 0.9011217966; 0.8902864168
1.370000000;  0.8910709067; 0.9566045409; 0.9005856403; 0.8899725417
1.380000000;  0.8907070075; 0.9563390611; 0.9000515756; 0.8896592676
1.390000000;  0.8903490327; 0.9560736550; 0.8995195907; 0.8893465805
1.400000000;  0.8899880589; 0.9558083226; 0.8989896738; 0.8890344668
1.410000000;  0.8896314511; 0.9555430638; 0.8984618131; 0.8887229136
1.420000000;  0.8892789503; 0.9552778787; 0.8979359971; 0.8884119086
1.430000000;  0.8889248372; 0.9550127671; 0.8974122142; 0.8881014399
1.440000000;  0.8885784725; 0.9547477291; 0.8968904528; 0.8877914959
1.450000000;  0.8882223482; 0.9544827646; 0.8963707016; 0.8874820659
1.460000000;  0.8878679482; 0.9542178737; 0.8958529491; 0.8871731393
1.470000000;  0.8875164434; 0.9539530563; 0.8953371840; 0.8868647061
1.480000000;  0.8871682244; 0.9536883124; 0.8948233951; 0.8865567566
1.490000000;  0.8868129307; 0.9534236420; 0.8943115712; 0.8862492816
1.500000000;  0.8864603591; 0.9531590450; 0.8938017012; 0.8859422722
1.510000000;  0.8861108139; 0.9528945214; 0.8932937740; 0.8856357198
1.520000000;  0.8857601762; 0.9526300713; 0.8927877787; 0.8853296164
1.530000000;  0.8854080988; 0.9523656945; 0.8922837043; 0.8850239540
1.540000000;  0.8850623445; 0.9521013912; 0.8917815400; 0.8847187252
1.550000000;  0.8847215269; 0.9518371611; 0.8912812749; 0.8844139226
1.560000000;  0.8843755404; 0.9515730044; 0.8907828983; 0.8841095395
1.570000000;  0.8840285917; 0.9513089211; 0.8902863996; 0.8838055691
1.580000000;  0.8836831533; 0.9510449110; 0.8897917681; 0.8835020050
1.590000000;  0.8833388785; 0.9507809741; 0.8892989933; 0.8831988411
1.600000000;  0.8830025797; 0.9505171105; 0.8888080647; 0.8828960715
1.610000000;  0.8826616314; 0.9502533202; 0.8883189719; 0.8825936906
1.620000000;  0.8823198948; 0.9499896030; 0.8878317044; 0.8822916930
1.630000000;  0.8819877420; 0.9497259591; 0.8873462520; 0.8819900733
1.640000000;  0.8816538908; 0.9494623883; 0.8868626044; 0.8816888267
1.650000000;  0.8813258062; 0.9491988906; 0.8863807515; 0.8813879482
1.660000000;  0.8809948949; 0.9489354661; 0.8859006830; 0.8810874332
1.670000000;  0.8806650198; 0.9486721147; 0.8854223890; 0.8807872774
1.680000000;  0.8803395675; 0.9484088364; 0.8849458593; 0.8804874764
1.690000000;  0.8800099856; 0.9481456311; 0.8844710841; 0.8801880261
1.700000000;  0.8796779667; 0.9478824989; 0.8839980534; 0.8798889225
1.710000000;  0.8793470275; 0.9476194397; 0.8835267574; 0.8795901619
1.720000000;  0.8790142154; 0.9473564535; 0.8830571863; 0.8792917407
1.730000000;  0.8786830042; 0.9470935403; 0.8825893304; 0.8789936552
1.740000000;  0.8783555660; 0.9468307001; 0.8821231800; 0.8786959021
1.750000000;  0.8780295561; 0.9465679328; 0.8816587254; 0.8783984781
1.760000000;  0.8777028462; 0.9463052385; 0.8811959571; 0.8781013801
1.770000000;  0.8773813445; 0.9460426170; 0.8807348657; 0.8778046052
1.780000000;  0.8770649218; 0.9457800684; 0.8802754415; 0.8775081503
1.790000000;  0.8767493645; 0.9455175927; 0.8798176753; 0.8772120127
1.800000000;  0.8764292413; 0.9452551898; 0.8793615577; 0.8769161896
1.810000000;  0.8761162409; 0.9449928598; 0.8789070794; 0.8766206786
1.820000000;  0.8757979788; 0.9447306025; 0.8784542311; 0.8763254770
1.830000000;  0.8754767140; 0.9444684181; 0.8780030037; 0.8760305825
1.840000000;  0.8751623996; 0.9442063064; 0.8775533880; 0.8757359928
1.850000000;  0.8748453433; 0.9439442674; 0.8771053750; 0.8754417055
1.860000000;  0.8745315005; 0.9436823012; 0.8766589556; 0.8751477186
1.870000000;  0.8742170023; 0.9434204076; 0.8762141209; 0.8748540299
1.880000000;  0.8739039357; 0.9431585868; 0.8757708619; 0.8745606374
1.890000000;  0.8735843003; 0.9428968386; 0.8753291697; 0.8742675392
1.900000000;  0.8732718360; 0.9426351630; 0.8748890356; 0.8739747334
1.910000000;  0.8729569769; 0.9423735601; 0.8744504507; 0.8736822181
1.920000000;  0.8726484643; 0.9421120297; 0.8740134064; 0.8733899917
1.930000000;  0.8723352954; 0.9418505720; 0.8735778939; 0.8730980524
1.940000000;  0.8720229064; 0.9415891868; 0.8731439047; 0.8728063986
1.950000000;  0.8717133421; 0.9413278742; 0.8727114301; 0.8725150286
1.960000000;  0.8714044713; 0.9410666340; 0.8722804617; 0.8722239411
1.970000000;  0.8710965119; 0.9408054664; 0.8718509910; 0.8719331343
1.980000000;  0.8707850692; 0.9405443712; 0.8714230095; 0.8716426071
1.990000000;  0.8704762347; 0.9402833486; 0.8709965089; 0.8713523578
2.000000000;  0.8701714014; 0.9400223983; 0.8705714808; 0.8710623853
2.010000000;  0.8698589501; 0.9397615205; 0.8701479171; 0.8707726881
2.020000000;  0.8695540256; 0.9395007150; 0.8697258093; 0.8704832650
2.030000000;  0.8692547578; 0.9392399820; 0.8693051494; 0.8701941148
2.040000000;  0.8689487418; 0.9389793213; 0.8688859293; 0.8699052363
2.050000000;  0.8686469901; 0.9387187329; 0.8684681408; 0.8696166283
2.060000000;  0.8683515936; 0.9384582169; 0.8680517758; 0.8693282897
2.070000000;  0.8680448325; 0.9381977732; 0.8676368265; 0.8690402194
2.080000000;  0.8677485199; 0.9379374017; 0.8672232848; 0.8687524163
2.090000000;  0.8674461537; 0.9376771025; 0.8668111428; 0.8684648794
2.100000000;  0.8671489250; 0.9374168756; 0.8664003927; 0.8681776078
2.110000000;  0.8668419397; 0.9371567208; 0.8659910267; 0.8678906003
2.120000000;  0.8665411373; 0.9368966383; 0.8655830369; 0.8676038562
2.130000000;  0.8662399416; 0.9366366279; 0.8651764157; 0.8673173744
2.140000000;  0.8659442772; 0.9363766897; 0.8647711554; 0.8670311540
2.150000000;  0.8656402477; 0.9361168237; 0.8643672484; 0.8667451942
2.160000000;  0.8653396584; 0.9358570297; 0.8639646870; 0.8664594941
2.170000000;  0.8650437302; 0.9355973079; 0.8635634637; 0.8661740528
2.180000000;  0.8647402630; 0.9353376581; 0.8631635710; 0.8658888696
2.190000000;  0.8644459457; 0.9350780804; 0.8627650015; 0.8656039437
2.200000000;  0.8641470085; 0.9348185747; 0.8623677477; 0.8653192742
2.210000000;  0.8638446271; 0.9345591411; 0.8619718022; 0.8650348605
2.220000000;  0.8635495672; 0.9342997794; 0.8615771578; 0.8647507017
2.230000000;  0.8632562507; 0.9340404898; 0.8611838071; 0.8644667972
2.240000000;  0.8629589668; 0.9337812721; 0.8607917429; 0.8641831462
2.250000000;  0.8626698789; 0.9335221263; 0.8604009579; 0.8638997480
2.260000000;  0.8623816635; 0.9332630524; 0.8600114450; 0.8636166020
2.270000000;  0.8620917918; 0.9330040505; 0.8596231971; 0.8633337074
2.280000000;  0.8618021822; 0.9327451204; 0.8592362071; 0.8630510637
2.290000000;  0.8615055952; 0.9324862622; 0.8588504680; 0.8627686701
2.300000000;  0.8612123659; 0.9322274758; 0.8584659727; 0.8624865262
2.310000000;  0.8609166940; 0.9319687612; 0.8580827143; 0.8622046311
2.320000000;  0.8606184043; 0.9317101185; 0.8577006859; 0.8619229844
2.330000000;  0.8603265702; 0.9314515475; 0.8573198805; 0.8616415854
2.340000000;  0.8600295010; 0.9311930483; 0.8569402914; 0.8613604335
2.350000000;  0.8597445169; 0.9309346208; 0.8565619118; 0.8610795283
2.360000000;  0.8594535997; 0.9306762650; 0.8561847348; 0.8607988690
2.370000000;  0.8591551771; 0.9304179810; 0.8558087538; 0.8605184551
2.380000000;  0.8588572773; 0.9301597686; 0.8554339620; 0.8602382862
2.390000000;  0.8585640903; 0.9299016279; 0.8550603528; 0.8599583616
2.400000000;  0.8582771012; 0.9296435588; 0.8546879197; 0.8596786808
2.410000000;  0.8579875375; 0.9293855613; 0.8543166560; 0.8593992434
2.420000000;  0.8577009865; 0.9291276354; 0.8539465552; 0.8591200487
2.430000000;  0.8574111184; 0.9288697812; 0.8535776108; 0.8588410962
2.440000000;  0.8571208578; 0.9286119984; 0.8532098164; 0.8585623856
2.450000000;  0.8568360992; 0.9283542873; 0.8528431655; 0.8582839162
2.460000000;  0.8565452721; 0.9280966476; 0.8524776517; 0.8580056876
2.470000000;  0.8562548820; 0.9278390794; 0.8521132688; 0.8577276993
2.480000000;  0.8559645358; 0.9275815828; 0.8517500103; 0.8574499509
2.490000000;  0.8556738843; 0.9273241575; 0.8513878701; 0.8571724417
2.500000000;  0.8553861597; 0.9270668038; 0.8510268418; 0.8568951715
2.510000000;  0.8551006200; 0.9268095214; 0.8506669193; 0.8566181397
2.520000000;  0.8548156056; 0.9265523105; 0.8503080964; 0.8563413458
2.530000000;  0.8545258301; 0.9262951709; 0.8499503670; 0.8560647895
2.540000000;  0.8542376281; 0.9260381027; 0.8495937249; 0.8557884702
2.550000000;  0.8539487713; 0.9257811058; 0.8492381642; 0.8555123876
2.560000000;  0.8536625807; 0.9255241803; 0.8488836788; 0.8552365411
2.570000000;  0.8533809362; 0.9252673260; 0.8485302627; 0.8549609304
2.580000000;  0.8530918633; 0.9250105431; 0.8481779099; 0.8546855550
2.590000000;  0.8528075116; 0.9247538314; 0.8478266145; 0.8544104146
2.600000000;  0.8525233360; 0.9244971909; 0.8474763707; 0.8541355086
2.610000000;  0.8522364512; 0.9242406217; 0.8471271726; 0.8538608366
2.620000000;  0.8519556006; 0.9239841237; 0.8467790143; 0.8535863983
2.630000000;  0.8516824907; 0.9237276968; 0.8464318901; 0.8533121933
2.640000000;  0.8514033057; 0.9234713411; 0.8460857943; 0.8530382211
2.650000000;  0.8511197937; 0.9232150566; 0.8457407210; 0.8527644812
2.660000000;  0.8508383822; 0.9229588432; 0.8453966647; 0.8524909734
2.670000000;  0.8505592903; 0.9227027009; 0.8450536196; 0.8522176973
2.680000000;  0.8502780135; 0.9224466297; 0.8447115801; 0.8519446523
2.690000000;  0.8500038247; 0.9221906295; 0.8443705407; 0.8516718382
2.700000000;  0.8497274514; 0.9219347004; 0.8440304957; 0.8513992545
2.710000000;  0.8494487618; 0.9216788424; 0.8436914398; 0.8511269009
2.720000000;  0.8491668367; 0.9214230553; 0.8433533673; 0.8508547769
2.730000000;  0.8488874072; 0.9211673392; 0.8430162728; 0.8505828822
2.740000000;  0.8486120930; 0.9209116941; 0.8426801509; 0.8503112164
2.750000000;  0.8483306111; 0.9206561199; 0.8423449961; 0.8500397791
2.760000000;  0.8480475552; 0.9204006167; 0.8420108032; 0.8497685700
2.770000000;  0.8477659452; 0.9201451843; 0.8416775667; 0.8494975886
2.780000000;  0.8474912090; 0.9198898229; 0.8413452814; 0.8492268346
2.790000000;  0.8472178762; 0.9196345323; 0.8410139420; 0.8489563077
2.800000000;  0.8469418321; 0.9193793126; 0.8406835433; 0.8486860074
2.810000000;  0.8466625507; 0.9191241637; 0.8403540799; 0.8484159334
2.820000000;  0.8463880438; 0.9188690856; 0.8400255468; 0.8481460853
2.830000000;  0.8461080224; 0.9186140783; 0.8396979388; 0.8478764627
2.840000000;  0.8458379434; 0.9183591418; 0.8393712507; 0.8476070654
2.850000000;  0.8455642329; 0.9181042760; 0.8390454775; 0.8473378929
2.860000000;  0.8452897369; 0.9178494809; 0.8387206141; 0.8470689449
