# Tau / ps;  Occurrence;  1-exp fit;  2-exp fit;  3-exp fit
0.000000000;  1.000000000; 0.9916866012; 0.9989569079; 0.9999615832
0.01000000000;  0.9718588788; 0.9909740114; 0.9974436098; 0.9934212557
0.02000000000;  0.9554096924; 0.9902619336; 0.9959339835; 0.9870984153
0.03000000000;  0.9446430526; 0.9895503675; 0.9944280192; 0.9809850187
0.04000000000;  0.9380232233; 0.9888393127; 0.9929257072; 0.9750733213
0.05000000000;  0.9324093020; 0.9881287689; 0.9914270377; 0.9693558654
0.06000000000;  0.9276854662; 0.9874187356; 0.9899320010; 0.9638254706
0.07000000000;  0.9228250506; 0.9867092125; 0.9884405876; 0.9584752222
0.08000000000;  0.9184581794; 0.9860001993; 0.9869527878; 0.9532984627
0.09000000000;  0.9142417739; 0.9852916955; 0.9854685920; 0.9482887810
0.1000000000;  0.9105102101; 0.9845837008; 0.9839879907; 0.9434400044
0.1100000000;  0.9070316736; 0.9838762149; 0.9825109742; 0.9387461887
0.1200000000;  0.9039307634; 0.9831692374; 0.9810375331; 0.9342016106
0.1300000000;  0.9010441702; 0.9824627678; 0.9795676578; 0.9298007589
0.1400000000;  0.8985057590; 0.9817568059; 0.9781013389; 0.9255383271
0.1500000000;  0.8960767404; 0.9810513513; 0.9766385670; 0.9214092053
0.1600000000;  0.8938293308; 0.9803464036; 0.9751793327; 0.9174084734
0.1700000000;  0.8917060533; 0.9796419624; 0.9737236264; 0.9135313936
0.1800000000;  0.8897299470; 0.9789380275; 0.9722714390; 0.9097734041
0.1900000000;  0.8877876313; 0.9782345983; 0.9708227609; 0.9061301121
0.2000000000;  0.8858550890; 0.9775316746; 0.9693775830; 0.9025972880
0.2100000000;  0.8839380553; 0.9768292560; 0.9679358959; 0.8991708589
0.2200000000;  0.8821137532; 0.9761273422; 0.9664976904; 0.8958469032
0.2300000000;  0.8803104420; 0.9754259327; 0.9650629571; 0.8926216447
0.2400000000;  0.8786087059; 0.9747250272; 0.9636316870; 0.8894914471
0.2500000000;  0.8769154755; 0.9740246253; 0.9622038707; 0.8864528092
0.2600000000;  0.8752121637; 0.9733247268; 0.9607794992; 0.8835023596
0.2700000000;  0.8735343593; 0.9726253311; 0.9593585632; 0.8806368521
0.2800000000;  0.8719093634; 0.9719264381; 0.9579410537; 0.8778531608
0.2900000000;  0.8703436556; 0.9712280472; 0.9565269616; 0.8751482757
0.3000000000;  0.8688216530; 0.9705301582; 0.9551162778; 0.8725192986
0.3100000000;  0.8673231219; 0.9698327706; 0.9537089933; 0.8699634387
0.3200000000;  0.8658340025; 0.9691358842; 0.9523050989; 0.8674780087
0.3300000000;  0.8643805998; 0.9684394985; 0.9509045858; 0.8650604212
0.3400000000;  0.8629224320; 0.9677436132; 0.9495074450; 0.8627081845
0.3500000000;  0.8615081090; 0.9670482279; 0.9481136675; 0.8604188994
0.3600000000;  0.8601298392; 0.9663533424; 0.9467232443; 0.8581902559
0.3700000000;  0.8587634970; 0.9656589561; 0.9453361667; 0.8560200293
0.3800000000;  0.8574004023; 0.9649650688; 0.9439524256; 0.8539060778
0.3900000000;  0.8560628351; 0.9642716801; 0.9425720123; 0.8518463389
0.4000000000;  0.8547438825; 0.9635787897; 0.9411949180; 0.8498388264
0.4100000000;  0.8534325095; 0.9628863971; 0.9398211337; 0.8478816281
0.4200000000;  0.8521449068; 0.9621945021; 0.9384506508; 0.8459729025
0.4300000000;  0.8508575577; 0.9615031042; 0.9370834605; 0.8441108766
0.4400000000;  0.8495854466; 0.9608122032; 0.9357195540; 0.8422938428
0.4500000000;  0.8483379966; 0.9601217986; 0.9343589227; 0.8405201572
0.4600000000;  0.8471004905; 0.9594318901; 0.9330015578; 0.8387882367
0.4700000000;  0.8458740487; 0.9587424773; 0.9316474507; 0.8370965570
0.4800000000;  0.8446575540; 0.9580535600; 0.9302965927; 0.8354436501
0.4900000000;  0.8434493884; 0.9573651376; 0.9289489752; 0.8338281028
0.5000000000;  0.8422567088; 0.9566772100; 0.9276045897; 0.8322485540
0.5100000000;  0.8410681503; 0.9559897766; 0.9262634276; 0.8307036932
0.5200000000;  0.8399032980; 0.9553028373; 0.9249254802; 0.8291922586
0.5300000000;  0.8387585918; 0.9546163915; 0.9235907391; 0.8277130349
0.5400000000;  0.8376196615; 0.9539304390; 0.9222591958; 0.8262648522
0.5500000000;  0.8364807937; 0.9532449794; 0.9209308418; 0.8248465837
0.5600000000;  0.8353462891; 0.9525600123; 0.9196056687; 0.8234571446
0.5700000000;  0.8342266647; 0.9518755374; 0.9182836679; 0.8220954902
0.5800000000;  0.8331024796; 0.9511915544; 0.9169648312; 0.8207606146
0.5900000000;  0.8319964181; 0.9505080629; 0.9156491500; 0.8194515491
0.6000000000;  0.8309145814; 0.9498250625; 0.9143366161; 0.8181673610
0.6100000000;  0.8298298371; 0.9491425528; 0.9130272211; 0.8169071522
0.6200000000;  0.8287526449; 0.9484605336; 0.9117209567; 0.8156700578
0.6300000000;  0.8276919345; 0.9477790045; 0.9104178146; 0.8144552450
0.6400000000;  0.8266406653; 0.9470979651; 0.9091177864; 0.8132619119
0.6500000000;  0.8255983378; 0.9464174150; 0.9078208640; 0.8120892863
0.6600000000;  0.8245549626; 0.9457373540; 0.9065270391; 0.8109366248
0.6700000000;  0.8235200888; 0.9450577816; 0.9052363035; 0.8098032111
0.6800000000;  0.8224717299; 0.9443786976; 0.9039486491; 0.8086883560
0.6900000000;  0.8214377088; 0.9437001015; 0.9026640675; 0.8075913955
0.7000000000;  0.8204186172; 0.9430219931; 0.9013825508; 0.8065116903
0.7100000000;  0.8194109494; 0.9423443719; 0.9001040908; 0.8054486248
0.7200000000;  0.8184121424; 0.9416672376; 0.8988286793; 0.8044016061
0.7300000000;  0.8174051868; 0.9409905899; 0.8975563084; 0.8033700636
0.7400000000;  0.8164040266; 0.9403144284; 0.8962869699; 0.8023534474
0.7500000000;  0.8154168595; 0.9396387527; 0.8950206558; 0.8013512284
0.7600000000;  0.8144417415; 0.9389635626; 0.8937573581; 0.8003628967
0.7700000000;  0.8134723346; 0.9382888576; 0.8924970688; 0.7993879617
0.7800000000;  0.8125149798; 0.9376146375; 0.8912397800; 0.7984259506
0.7900000000;  0.8115531643; 0.9369409018; 0.8899854836; 0.7974764084
0.8000000000;  0.8106135186; 0.9362676503; 0.8887341718; 0.7965388968
0.8100000000;  0.8096625416; 0.9355948825; 0.8874858366; 0.7956129938
0.8200000000;  0.8087229720; 0.9349225982; 0.8862404703; 0.7946982929
0.8300000000;  0.8077809484; 0.9342507969; 0.8849980648; 0.7937944030
0.8400000000;  0.8068555259; 0.9335794784; 0.8837586123; 0.7929009470
0.8500000000;  0.8059302170; 0.9329086422; 0.8825221052; 0.7920175622
0.8600000000;  0.8050158189; 0.9322382881; 0.8812885354; 0.7911438991
0.8700000000;  0.8040980247; 0.9315684157; 0.8800578953; 0.7902796211
0.8800000000;  0.8031814365; 0.9308990246; 0.8788301771; 0.7894244043
0.8900000000;  0.8022698016; 0.9302301145; 0.8776053731; 0.7885779365
0.9000000000;  0.8013616159; 0.9295616851; 0.8763834755; 0.7877399172
0.9100000000;  0.8004678275; 0.9288937360; 0.8751644767; 0.7869100571
0.9200000000;  0.7995770183; 0.9282262669; 0.8739483689; 0.7860880775
0.9300000000;  0.7986733118; 0.9275592773; 0.8727351446; 0.7852737101
0.9400000000;  0.7977874876; 0.9268927671; 0.8715247960; 0.7844666964
0.9500000000;  0.7969010431; 0.9262267358; 0.8703173156; 0.7836667875
0.9600000000;  0.7960301233; 0.9255611830; 0.8691126958; 0.7828737439
0.9700000000;  0.7951540981; 0.9248961085; 0.8679109290; 0.7820873346
0.9800000000;  0.7942857483; 0.9242315119; 0.8667120076; 0.7813073375
0.9900000000;  0.7934282335; 0.9235673929; 0.8655159241; 0.7805335384
1.000000000;  0.7925614219; 0.9229037510; 0.8643226711; 0.7797657314
1.010000000;  0.7916925155; 0.9222405861; 0.8631322409; 0.7790037179
1.020000000;  0.7908248800; 0.9215778976; 0.8619446262; 0.7782473067
1.030000000;  0.7899622948; 0.9209156854; 0.8607598195; 0.7774963137
1.040000000;  0.7890972902; 0.9202539490; 0.8595778134; 0.7767505617
1.050000000;  0.7882363622; 0.9195926881; 0.8583986003; 0.7760098799
1.060000000;  0.7873662818; 0.9189319023; 0.8572221731; 0.7752741038
1.070000000;  0.7865149553; 0.9182715914; 0.8560485242; 0.7745430752
1.080000000;  0.7856677369; 0.9176117549; 0.8548776464; 0.7738166415
1.090000000;  0.7848180705; 0.9169523926; 0.8537095322; 0.7730946558
1.100000000;  0.7839746100; 0.9162935041; 0.8525441745; 0.7723769768
1.110000000;  0.7831429092; 0.9156350890; 0.8513815658; 0.7716634681
1.120000000;  0.7823186278; 0.9149771470; 0.8502216989; 0.7709539985
1.130000000;  0.7814927570; 0.9143196778; 0.8490645666; 0.7702484418
1.140000000;  0.7806640556; 0.9136626811; 0.8479101617; 0.7695466762
1.150000000;  0.7798404115; 0.9130061564; 0.8467584768; 0.7688485845
1.160000000;  0.7790035369; 0.9123501035; 0.8456095049; 0.7681540538
1.170000000;  0.7781843357; 0.9116945220; 0.8444632387; 0.7674629754
1.180000000;  0.7773743598; 0.9110394116; 0.8433196711; 0.7667752446
1.190000000;  0.7765628840; 0.9103847719; 0.8421787950; 0.7660907605
1.200000000;  0.7757510015; 0.9097306026; 0.8410406032; 0.7654094261
1.210000000;  0.7749455094; 0.9090769034; 0.8399050886; 0.7647311476
1.220000000;  0.7741430690; 0.9084236739; 0.8387722442; 0.7640558351
1.230000000;  0.7733470796; 0.9077709138; 0.8376420628; 0.7633834017
1.240000000;  0.7725489115; 0.9071186227; 0.8365145375; 0.7627137638
1.250000000;  0.7717444854; 0.9064668004; 0.8353896613; 0.7620468409
1.260000000;  0.7709500879; 0.9058154464; 0.8342674270; 0.7613825555
1.270000000;  0.7701618775; 0.9051645605; 0.8331478278; 0.7607208327
1.280000000;  0.7693617330; 0.9045141423; 0.8320308566; 0.7600616007
1.290000000;  0.7685743685; 0.9038641914; 0.8309165066; 0.7594047902
1.300000000;  0.7678015895; 0.9032147076; 0.8298047708; 0.7587503343
1.310000000;  0.7670238245; 0.9025656904; 0.8286956422; 0.7580981687
1.320000000;  0.7662413980; 0.9019171397; 0.8275891141; 0.7574482315
1.330000000;  0.7654714602; 0.9012690549; 0.8264851794; 0.7568004629
1.340000000;  0.7647030418; 0.9006214358; 0.8253838314; 0.7561548056
1.350000000;  0.7639390412; 0.8999742821; 0.8242850633; 0.7555112040
1.360000000;  0.7631762946; 0.8993275935; 0.8231888681; 0.7548696049
1.370000000;  0.7624225807; 0.8986813695; 0.8220952391; 0.7542299568
1.380000000;  0.7616651823; 0.8980356098; 0.8210041696; 0.7535922102
1.390000000;  0.7609015552; 0.8973903142; 0.8199156527; 0.7529563173
1.400000000;  0.7601549490; 0.8967454823; 0.8188296817; 0.7523222323
1.410000000;  0.7594010495; 0.8961011137; 0.8177462500; 0.7516899108
1.420000000;  0.7586622209; 0.8954572081; 0.8166653507; 0.7510593101
1.430000000;  0.7579049455; 0.8948137652; 0.8155869771; 0.7504303892
1.440000000;  0.7571543987; 0.8941707847; 0.8145111227; 0.7498031084
1.450000000;  0.7564019123; 0.8935282662; 0.8134377808; 0.7491774296
1.460000000;  0.7556564813; 0.8928862094; 0.8123669447; 0.7485533159
1.470000000;  0.7549107088; 0.8922446139; 0.8112986078; 0.7479307320
1.480000000;  0.7541668143; 0.8916034795; 0.8102327634; 0.7473096436
1.490000000;  0.7534164821; 0.8909628058; 0.8091694051; 0.7466900180
1.500000000;  0.7526711943; 0.8903225924; 0.8081085263; 0.7460718233
1.510000000;  0.7519313070; 0.8896828391; 0.8070501203; 0.7454550290
1.520000000;  0.7511943938; 0.8890435455; 0.8059941807; 0.7448396057
1.530000000;  0.7504536471; 0.8884047112; 0.8049407010; 0.7442255250
1.540000000;  0.7497251993; 0.8877663360; 0.8038896746; 0.7436127595
1.550000000;  0.7490001120; 0.8871284195; 0.8028410951; 0.7430012829
1.560000000;  0.7482778530; 0.8864909614; 0.8017949561; 0.7423910697
1.570000000;  0.7475631891; 0.8858539613; 0.8007512510; 0.7417820954
1.580000000;  0.7468426501; 0.8852174190; 0.7997099735; 0.7411743365
1.590000000;  0.7461211502; 0.8845813341; 0.7986711171; 0.7405677702
1.600000000;  0.7454017095; 0.8839457062; 0.7976346754; 0.7399623746
1.610000000;  0.7446769846; 0.8833105351; 0.7966006422; 0.7393581284
1.620000000;  0.7439675857; 0.8826758203; 0.7955690109; 0.7387550113
1.630000000;  0.7432566642; 0.8820415617; 0.7945397754; 0.7381530037
1.640000000;  0.7425488696; 0.8814077588; 0.7935129292; 0.7375520865
1.650000000;  0.7418467199; 0.8807744113; 0.7924884660; 0.7369522416
1.660000000;  0.7411436701; 0.8801415190; 0.7914663796; 0.7363534513
1.670000000;  0.7404310409; 0.8795090814; 0.7904466637; 0.7357556985
1.680000000;  0.7397294188; 0.8788770983; 0.7894293120; 0.7351589670
1.690000000;  0.7390236674; 0.8782455693; 0.7884143183; 0.7345632409
1.700000000;  0.7383240663; 0.8776144940; 0.7874016764; 0.7339685049
1.710000000;  0.7376247500; 0.8769838723; 0.7863913800; 0.7333747444
1.720000000;  0.7369335704; 0.8763537037; 0.7853834230; 0.7327819452
1.730000000;  0.7362487805; 0.8757239879; 0.7843777992; 0.7321900936
1.740000000;  0.7355524836; 0.8750947246; 0.7833745025; 0.7315991764
1.750000000;  0.7348574796; 0.8744659134; 0.7823735267; 0.7310091808
1.760000000;  0.7341756818; 0.8738375541; 0.7813748656; 0.7304200947
1.770000000;  0.7334874139; 0.8732096463; 0.7803785133; 0.7298319061
1.780000000;  0.7328157328; 0.8725821897; 0.7793844635; 0.7292446036
1.790000000;  0.7321388860; 0.8719551840; 0.7783927103; 0.7286581762
1.800000000;  0.7314620599; 0.8713286288; 0.7774032475; 0.7280726132
1.810000000;  0.7307805412; 0.8707025239; 0.7764160691; 0.7274879043
1.820000000;  0.7301117006; 0.8700768688; 0.7754311692; 0.7269040397
1.830000000;  0.7294402726; 0.8694516633; 0.7744485416; 0.7263210097
1.840000000;  0.7287671166; 0.8688269071; 0.7734681804; 0.7257388050
1.850000000;  0.7280932404; 0.8682025998; 0.7724900796; 0.7251574169
1.860000000;  0.7274281318; 0.8675787411; 0.7715142333; 0.7245768365
1.870000000;  0.7267587160; 0.8669553306; 0.7705406355; 0.7239970557
1.880000000;  0.7260927612; 0.8663323682; 0.7695692803; 0.7234180663
1.890000000;  0.7254212235; 0.8657098533; 0.7686001618; 0.7228398607
1.900000000;  0.7247592265; 0.8650877858; 0.7676332741; 0.7222624312
1.910000000;  0.7240935148; 0.8644661653; 0.7666686112; 0.7216857707
1.920000000;  0.7234337565; 0.8638449914; 0.7657061674; 0.7211098721
1.930000000;  0.7227715885; 0.8632242640; 0.7647459368; 0.7205347287
1.940000000;  0.7221089977; 0.8626039825; 0.7637879135; 0.7199603339
1.950000000;  0.7214445602; 0.8619841467; 0.7628320918; 0.7193866815
1.960000000;  0.7207878574; 0.8613647564; 0.7618784658; 0.7188137652
1.970000000;  0.7201327495; 0.8607458111; 0.7609270298; 0.7182415792
1.980000000;  0.7194662425; 0.8601273106; 0.7599777779; 0.7176701178
1.990000000;  0.7188127819; 0.8595092545; 0.7590307044; 0.7170993755
2.000000000;  0.7181404441; 0.8588916425; 0.7580858037; 0.7165293469
2.010000000;  0.7174730530; 0.8582744743; 0.7571430699; 0.7159600268
2.020000000;  0.7168244669; 0.8576577496; 0.7562024973; 0.7153914102
2.030000000;  0.7161632033; 0.8570414680; 0.7552640803; 0.7148234924
2.040000000;  0.7155122301; 0.8564256293; 0.7543278132; 0.7142562685
2.050000000;  0.7148604788; 0.8558102331; 0.7533936903; 0.7136897342
2.060000000;  0.7142066137; 0.8551952790; 0.7524617060; 0.7131238849
2.070000000;  0.7135700460; 0.8545807669; 0.7515318546; 0.7125587164
2.080000000;  0.7129302973; 0.8539666964; 0.7506041305; 0.7119942247
2.090000000;  0.7122934821; 0.8533530670; 0.7496785282; 0.7114304058
2.100000000;  0.7116588586; 0.8527398787; 0.7487550420; 0.7108672557
2.110000000;  0.7110217959; 0.8521271309; 0.7478336663; 0.7103047707
2.120000000;  0.7103899238; 0.8515148234; 0.7469143956; 0.7097429472
2.130000000;  0.7097571862; 0.8509029560; 0.7459972244; 0.7091817818
2.140000000;  0.7091204059; 0.8502915281; 0.7450821471; 0.7086212709
2.150000000;  0.7084925583; 0.8496805397; 0.7441691583; 0.7080614113
2.160000000;  0.7078670524; 0.8490699902; 0.7432582523; 0.7075021997
2.170000000;  0.7072426712; 0.8484598795; 0.7423494238; 0.7069436331
2.180000000;  0.7066110400; 0.8478502072; 0.7414426673; 0.7063857084
2.190000000;  0.7059888487; 0.8472409730; 0.7405379773; 0.7058284228
2.200000000;  0.7053578922; 0.8466321765; 0.7396353483; 0.7052717733
2.210000000;  0.7047362280; 0.8460238175; 0.7387347751; 0.7047157572
2.220000000;  0.7041095108; 0.8454158957; 0.7378362520; 0.7041603718
2.230000000;  0.7034950875; 0.8448084107; 0.7369397738; 0.7036056145
2.240000000;  0.7028791167; 0.8442013622; 0.7360453351; 0.7030514828
2.250000000;  0.7022570826; 0.8435947499; 0.7351529304; 0.7024979742
2.260000000;  0.7016333516; 0.8429885735; 0.7342625546; 0.7019450863
2.270000000;  0.7010119640; 0.8423828326; 0.7333742021; 0.7013928169
2.280000000;  0.7003926530; 0.8417775271; 0.7324878677; 0.7008411635
2.290000000;  0.6997783603; 0.8411726565; 0.7316035461; 0.7002901240
2.300000000;  0.6991659965; 0.8405682205; 0.7307212320; 0.6997396964
2.310000000;  0.6985535410; 0.8399642188; 0.7298409201; 0.6991898784
2.320000000;  0.6979398348; 0.8393606512; 0.7289626051; 0.6986406680
2.330000000;  0.6973261854; 0.8387575172; 0.7280862818; 0.6980920633
2.340000000;  0.6967122956; 0.8381548167; 0.7272119450; 0.6975440624
2.350000000;  0.6961112732; 0.8375525492; 0.7263395893; 0.6969966633
2.360000000;  0.6955051665; 0.8369507145; 0.7254692097; 0.6964498642
2.370000000;  0.6948955799; 0.8363493123; 0.7246008010; 0.6959036634
2.380000000;  0.6942878046; 0.8357483422; 0.7237343578; 0.6953580590
2.390000000;  0.6936970619; 0.8351478039; 0.7228698751; 0.6948130494
2.400000000;  0.6931025431; 0.8345476972; 0.7220073478; 0.6942686329
2.410000000;  0.6925054072; 0.8339480216; 0.7211467706; 0.6937248079
2.420000000;  0.6919054159; 0.8333487770; 0.7202881385; 0.6931815728
2.430000000;  0.6913073264; 0.8327499630; 0.7194314463; 0.6926389260
2.440000000;  0.6907049834; 0.8321515793; 0.7185766889; 0.6920968661
2.450000000;  0.6901035906; 0.8315536255; 0.7177238613; 0.6915553915
2.460000000;  0.6895144193; 0.8309561014; 0.7168729584; 0.6910145008
2.470000000;  0.6889263186; 0.8303590067; 0.7160239751; 0.6904741926
2.480000000;  0.6883333103; 0.8297623410; 0.7151769064; 0.6899344654
2.490000000;  0.6877384870; 0.8291661040; 0.7143317472; 0.6893953180
2.500000000;  0.6871399447; 0.8285702955; 0.7134884925; 0.6888567490
2.510000000;  0.6865459229; 0.8279749151; 0.7126471374; 0.6883187571
2.520000000;  0.6859537746; 0.8273799626; 0.7118076769; 0.6877813410
2.530000000;  0.6853633811; 0.8267854375; 0.7109701058; 0.6872444994
2.540000000;  0.6847659659; 0.8261913397; 0.7101344194; 0.6867082312
2.550000000;  0.6841794989; 0.8255976687; 0.7093006126; 0.6861725351
2.560000000;  0.6835850279; 0.8250044244; 0.7084686806; 0.6856374099
2.570000000;  0.6829958826; 0.8244116063; 0.7076386183; 0.6851028545
2.580000000;  0.6824137898; 0.8238192142; 0.7068104209; 0.6845688677
2.590000000;  0.6818309534; 0.8232272477; 0.7059840835; 0.6840354484
2.600000000;  0.6812523734; 0.8226357067; 0.7051596011; 0.6835025955
2.610000000;  0.6806657882; 0.8220445907; 0.7043369690; 0.6829703079
2.620000000;  0.6800933111; 0.8214538994; 0.7035161823; 0.6824385846
2.630000000;  0.6795119655; 0.8208636326; 0.7026972360; 0.6819074245
2.640000000;  0.6789355915; 0.8202737900; 0.7018801255; 0.6813768266
2.650000000;  0.6783607964; 0.8196843712; 0.7010648458; 0.6808467898
2.660000000;  0.6777895750; 0.8190953759; 0.7002513922; 0.6803173132
2.670000000;  0.6772103765; 0.8185068038; 0.6994397599; 0.6797883957
2.680000000;  0.6766409740; 0.8179186547; 0.6986299440; 0.6792600365
2.690000000;  0.6760680899; 0.8173309282; 0.6978219399; 0.6787322345
2.700000000;  0.6755030382; 0.8167436240; 0.6970157428; 0.6782049888
2.710000000;  0.6749362617; 0.8161567418; 0.6962113478; 0.6776782984
2.720000000;  0.6743706189; 0.8155702814; 0.6954087504; 0.6771521625
2.730000000;  0.6738005709; 0.8149842423; 0.6946079458; 0.6766265802
2.740000000;  0.6732416630; 0.8143986244; 0.6938089292; 0.6761015505
2.750000000;  0.6726745378; 0.8138134273; 0.6930116960; 0.6755770726
2.760000000;  0.6721090827; 0.8132286506; 0.6922162416; 0.6750531456
2.770000000;  0.6715333534; 0.8126442942; 0.6914225611; 0.6745297686
2.780000000;  0.6709648638; 0.8120603576; 0.6906306501; 0.6740069408
2.790000000;  0.6704012914; 0.8114768407; 0.6898405038; 0.6734846613
2.800000000;  0.6698393599; 0.8108937431; 0.6890521176; 0.6729629294
2.810000000;  0.6692848494; 0.8103110644; 0.6882654870; 0.6724417442
2.820000000;  0.6687326362; 0.8097288044; 0.6874806072; 0.6719211048
2.830000000;  0.6681777153; 0.8091469629; 0.6866974737; 0.6714010105
2.840000000;  0.6676147227; 0.8085655394; 0.6859160820; 0.6708814605
2.850000000;  0.6670620727; 0.8079845337; 0.6851364275; 0.6703624539
2.860000000;  0.6665148498; 0.8074039455; 0.6843585055; 0.6698439901
