# tau / ps;  MSD / pm^2;  Derivative
0.000000; 0.000000; 40572.029070
0.060040; 2435.944625; 74345.142091
0.120080; 6899.626957; 63097.888357
0.180120; 10688.024173; 38700.332923
0.240160; 13011.592162; 23791.521469
0.300200; 14440.035111; 18034.351643
0.360240; 15522.817584; 15988.652224
0.420280; 16482.776263; 13211.283759
0.480320; 17275.981740; 10653.388289
0.540360; 17915.611173; 7859.422203
0.600400; 18387.490882; 5832.715598
0.660440; 18737.687127; 4751.609224
0.720480; 19022.973744; 4132.425697
0.780520; 19271.084583; 3495.872693
0.840560; 19480.976780; 3139.465153
0.900600; 19669.470268; 2889.883706
0.960640; 19842.978885; 2622.287781
1.020680; 20000.421044; 2535.892851
1.080720; 20152.676050; 2465.253822
1.140760; 20300.689890; 2407.520836
1.200800; 20445.237441; 2228.251545
1.260840; 20579.021664; 2110.903689
1.320880; 20705.760321; 1918.067864
1.380920; 20820.921116; 1854.265043
1.440960; 20932.251189; 1800.437590
1.501000; 21040.349462; 1831.446329
1.561040; 21150.309499; 1801.966808
1.621080; 21258.499587; 1645.253776
1.681120; 21357.280623; 1459.286413
1.741160; 21444.896180; 1286.815319
1.801200; 21522.156571; 1171.946084
1.861240; 21592.520214; 1174.249136
1.921280; 21663.022132; 1248.825665
1.981320; 21738.001625; 1321.624546
2.041360; 21817.351963; 1395.683752
2.101400; 21901.148815; 1432.534600
2.161440; 21987.158193; 1429.659581
2.221480; 22072.994954; 1406.142471
2.281520; 22157.419748; 1440.898921
2.341560; 22243.931319; 1466.425262
2.401600; 22331.975492; 1593.361995
2.461640; 22427.640946; 1732.532880
2.521680; 22531.662220; 1732.519523
2.581720; 22635.682692; 1617.418921
2.641760; 22732.792524; 1602.923652
2.701800; 22829.032060; 1619.151951
2.761840; 22926.245944; 1654.036657
2.821880; 23025.554304; 1666.256720
2.881920; 23125.596358; 1655.352637
2.941960; 23224.983730; 1642.413621
3.002000; 23323.594244; 1586.493947
3.062040; 23418.847341; 1523.520012
3.122080; 23510.319482; 1529.015210
3.182120; 23602.121555; 1556.317123
3.242160; 23695.562835; 1507.020561
3.302200; 23786.044350; 1375.245340
3.362240; 23868.614080; 1262.618335
3.422280; 23944.421685; 1270.750808
3.482320; 24020.717563; 1375.973290
3.542360; 24103.331000; 1465.513475
3.602400; 24191.320429; 1454.059243
3.662440; 24278.622146; 1394.532366
3.722480; 24362.349869; 1327.356800
3.782520; 24442.044371; 1318.426111
3.842560; 24521.202675; 1320.862735
3.902600; 24600.507273; 1315.742797
3.962640; 24679.504471; 1316.695149
4.022680; 24758.558848; 1346.354766
4.082720; 24839.393988; 1302.067739
4.142760; 24917.570135; 1330.173626
4.202800; 24997.433759; 1405.195914
4.262840; 25081.801722; 1428.714780
4.322880; 25167.581757; 1355.384302
4.382920; 25248.959031; 1236.638050
4.442960; 25323.206779; 1202.079867
4.503000; 25395.379655; 1275.983613
4.563040; 25471.989711; 1372.071843
4.623080; 25554.368904; 1369.813061
4.683120; 25636.612480; 1250.373480
4.743160; 25711.684904; 1098.876441
4.803200; 25777.661446; 1058.504137
4.863240; 25841.214034; 1103.577669
4.923280; 25907.472837; 1130.423131
4.983320; 25975.343442; 1094.902277
5.043360; 26041.081375; 1078.295782
5.103400; 26105.822254; 1123.201848
5.163440; 26173.259293; 1205.389996
5.223480; 26245.630908; 1260.281530
5.283520; 26321.298211; 1327.526492
5.343560; 26401.002902; 1344.139406
5.403600; 26481.705032; 1237.488708
5.463640; 26556.003854; 1031.245165
5.523680; 26617.919813; 890.582322
5.583720; 26671.390376; 882.853295
5.643760; 26724.396888; 952.625075
5.703800; 26781.592497; 1018.511794
5.763840; 26842.743945; 1048.060411
5.823880; 26905.669492; 1099.288639
5.883920; 26971.670782; 1098.011087
5.943960; 27037.595368; 1078.968952
6.004000; 27102.376664; 1126.703330
6.064040; 27170.023932; 1178.212854
6.124080; 27240.763832; 1173.335021
6.184120; 27311.210866; 1087.229331
6.244160; 27376.488115; 1031.231060
6.304200; 27438.403228; 1078.150324
6.364240; 27503.135374; 1077.616709
6.424280; 27567.835481; 975.694407
6.484320; 27626.416173; 880.059628
6.544360; 27679.254953; 861.514412
6.604400; 27730.980278; 986.542464
6.664440; 27790.212288; 1136.386064
6.724480; 27858.440907; 1160.229242
6.784520; 27928.101071; 1049.901926
6.844560; 27991.137182; 947.192519
6.904600; 28048.006621; 961.639464
6.964640; 28105.743455; 1062.785432
7.024680; 28169.553092; 1090.057142
7.084720; 28235.000123; 1025.287974
7.144760; 28296.558413; 996.147288
7.204800; 28356.367096; 1018.655636
7.264840; 28417.527180; 1135.802580
7.324880; 28485.720767; 1246.109837
7.384920; 28560.537202; 1209.890013
7.444960; 28633.178998; 1061.186194
7.505000; 28696.892617; 892.036768
7.565040; 28750.450505; 829.758131
7.625080; 28800.269183; 888.768155
7.685120; 28853.630823; 985.971102
7.745160; 28912.828528; 1010.915230
7.805200; 28973.523878; 988.455035
7.865240; 29032.870719; 976.637730
7.925280; 29091.508048; 950.937658
7.985320; 29148.602345; 927.049050
8.045360; 29204.262370; 952.897228
8.105400; 29261.474320; 992.471730
8.165440; 29321.062322; 1040.669603
8.225480; 29383.544125; 1072.249401
8.285520; 29447.921979; 1067.203750
8.345560; 29511.996892; 1042.438266
8.405600; 29574.584886; 1072.434168
8.465640; 29638.973833; 1143.308730
8.525680; 29707.618089; 1125.323125
8.585720; 29775.182490; 977.679690
8.645760; 29833.882379; 833.772774
8.705800; 29883.942096; 864.884734
8.765840; 29935.869775; 973.971931
8.825880; 29994.347050; 1081.858379
8.885920; 30059.301827; 1066.913463
8.945960; 30123.359311; 979.381368
9.006000; 30182.161369; 936.891407
9.066040; 30238.412329; 947.063642
9.126080; 30295.274030; 958.642213
9.186120; 30352.830908; 1004.695377
9.246160; 30413.152819; 994.930490
9.306200; 30472.888446; 965.177460
9.366240; 30530.837700; 869.091617
9.426280; 30583.017961; 857.878956
9.486320; 30634.525013; 927.523255
9.546360; 30690.213510; 1003.065128
9.606400; 30750.437540; 999.171798
9.666440; 30810.427815; 943.771007
9.726480; 30867.091826; 904.811623
9.786520; 30921.416716; 865.177114
9.846560; 30973.361950; 823.921083
9.906600; 31022.830172; 882.086139
9.966640; 31075.790623; 972.760573
10.026680; 31134.195168; 982.809165
10.086720; 31193.203030; 914.390703
10.146760; 31248.103048; 892.541650
10.206800; 31301.691249; 918.264903
10.266840; 31356.823874; 1000.908484
10.326880; 31416.918419; 992.823474
10.386920; 31476.527540; 919.313120
10.446960; 31531.723100; 834.782939
10.507000; 31581.843468; 835.445512
10.567040; 31632.003616; 882.240884
10.627080; 31684.973359; 951.200550
10.687120; 31742.083440; 910.829573
10.747160; 31796.769648; 815.012979
10.807200; 31845.703027; 756.353354
10.867240; 31891.114482; 745.601402
10.927280; 31935.880391; 789.570934
10.987320; 31983.286229; 857.384549
11.047360; 32034.763598; 935.684625
11.107400; 32090.942103; 983.184984
11.167440; 32149.972529; 965.824089
11.227480; 32207.960607; 949.929417
11.287520; 32264.994369; 998.975914
11.347560; 32324.972883; 993.100957
11.407600; 32384.598665; 865.479998
11.467640; 32436.562084; 746.015818
11.527680; 32481.352874; 781.922635
11.587720; 32528.299509; 860.755536
11.647760; 32579.979271; 933.372673
11.707800; 32636.018966; 947.110564
11.767840; 32692.883485; 882.136344
11.827880; 32745.846951; 727.688637
11.887920; 32789.537376; 523.803478
11.947960; 32820.986537; 523.930068
12.008000; 32852.443298; 777.959300
12.068040; 32899.151975; 949.052606
12.128080; 32956.133093; 1004.413452
12.188120; 33016.438077; 1038.607425
12.248160; 33078.796067; 999.014027
12.308200; 33138.776869; 898.010606
12.368240; 33192.693426; 772.350137
12.428280; 33239.065328; 690.970876
12.488320; 33280.551219; 657.227860
12.548360; 33320.011180; 682.064714
12.608400; 33360.962346; 794.248872
12.668440; 33408.649048; 960.230286
12.728480; 33466.301274; 1099.047828
12.788520; 33532.288106; 1077.518801
12.848560; 33596.982335; 983.434616
12.908600; 33656.027749; 946.004105
12.968640; 33712.825835; 980.233052
13.028680; 33771.679028; 936.179453
13.088720; 33827.887242; 870.011350
13.148760; 33880.122724; 843.698414
13.208800; 33930.778376; 874.198922
13.268840; 33983.265280; 968.622807
13.328880; 34041.421393; 1054.304351
13.388920; 34104.721826; 1037.830848
13.448960; 34167.033190; 968.136283
13.509000; 34225.160093; 946.698809
13.569040; 34281.999889; 975.986942
13.629080; 34340.598145; 975.495211
13.689120; 34399.166878; 933.962611
13.749160; 34455.241993; 790.258616
13.809200; 34502.689120; 657.419378
13.869240; 34542.160580; 614.947657
13.929280; 34579.082037; 671.971161
13.989320; 34619.427186; 720.883132
14.049360; 34662.709009; 747.827435
14.109400; 34707.608568; 699.263718
14.169440; 34749.592362; 698.228516
14.229480; 34791.514002; 747.083291
14.289520; 34836.368883; 868.026110
14.349560; 34888.485170; 928.471736
14.409600; 34944.230613; 890.258060
14.469640; 34997.681707; 840.021757
14.529680; 35048.116613; 806.397479
14.589720; 35096.532718; 732.685724
14.649760; 35140.523169; 628.977097
14.709800; 35178.286954; 602.308033
14.769840; 35214.449528; 769.329329
14.829880; 35260.640061; 957.127935
14.889920; 35318.106022; 1021.689700
14.949960; 35379.448272; 975.511524
15.010000; 35438.017984; 858.588270
15.070040; 35489.567624; 821.498753
15.130080; 35538.890409; 883.475174
15.190120; 35591.934258; 905.025999
15.250160; 35646.272019; 870.731122
15.310200; 35698.550716; 858.994433
15.370240; 35750.124741; 954.802305
15.430280; 35807.451072; 1109.281715
15.490320; 35874.052346; 1224.826960
15.550360; 35947.590957; 1180.953054
15.610400; 36018.495378; 1054.715288
15.670440; 36081.820484; 933.424352
15.730480; 36137.863282; 900.989189
15.790520; 36191.958673; 883.960484
15.850560; 36245.031660; 886.231166
15.910600; 36298.240980; 874.466919
15.970640; 36350.743973; 855.237466
16.030680; 36402.092431; 754.318648
16.090720; 36447.381722; 551.032859
16.150760; 36480.465735; 400.934757
16.210800; 36504.537858; 425.212518
16.270840; 36530.067618; 553.239120
16.330880; 36563.284094; 686.073848
16.390920; 36604.475968; 797.803082
16.450960; 36652.376065; 817.250456
16.511000; 36701.443783; 797.119235
16.571040; 36749.302822; 811.957636
16.631080; 36798.052758; 838.074806
16.691120; 36848.370769; 751.089130
16.751160; 36893.466161; 602.650754
16.811200; 36929.649312; 547.693145
16.871240; 36962.532808; 604.011728
16.931280; 36998.797673; 662.368505
16.991320; 37038.566278; 682.847975
17.051360; 37079.564470; 748.177805
17.111400; 37124.485065; 860.861435
17.171440; 37176.171186; 951.825013
17.231480; 37233.318760; 1037.660573
17.291520; 37295.619901; 1072.108449
17.351560; 37359.989292; 1064.256865
17.411600; 37423.887274; 1069.334254
17.471640; 37488.090103; 1040.213559
17.531680; 37550.544525; 989.190178
17.591720; 37609.935503; 965.478668
17.651760; 37667.902842; 974.784573
17.711800; 37726.428908; 943.745002
17.771840; 37783.091358; 852.457273
17.831880; 37834.272893; 761.654751
17.891920; 37880.002644; 742.596611
17.951960; 37924.588144; 812.020394
18.012000; 37973.341849; 909.573301
18.072040; 38027.952630; 908.564776
18.132080; 38082.502859; 827.530704
18.192120; 38132.187802; 738.236151
18.252160; 38176.511501; 729.506132
18.312200; 38220.311049; 795.781067
18.372240; 38268.089744; 978.180651
18.432280; 38326.819711; 1132.256484
18.492320; 38394.800390; 1111.394076
18.552360; 38461.528490; 938.109978
18.612400; 38517.852613; 784.925676
18.672440; 38564.979551; 690.022431
18.732480; 38606.408498; 643.758324
18.792520; 38645.059747; 714.550332
18.852560; 38687.961349; 863.702525
18.912600; 38739.818049; 1009.909604
18.972640; 38800.453021; 1021.718366
19.032680; 38861.796992; 942.449761
19.092720; 38918.381676; 894.221228
19.152760; 38972.070718; 850.868514
19.212800; 39023.156864; 801.942028
19.272840; 39071.305463; 800.330921
19.332880; 39119.357332; 825.646434
19.392920; 39168.929144; 815.434233
19.452960; 39217.887815; 684.581584
19.513000; 39258.990093; 574.062261
19.573040; 39293.456791; 610.467618
19.633080; 39330.109267; 734.798965
19.693120; 39374.226597; 856.124929
19.753160; 39425.628338; 912.457481
19.813200; 39480.412285; 882.396409
19.873240; 39533.391365; 849.207829
19.933280; 39584.377803; 856.889762
19.993320; 39635.825465; 920.578351
20.053360; 39691.096989; 984.487383
20.113400; 39750.205611; 935.813783
20.173440; 39806.391871; 769.291832
20.233480; 39852.580152; 648.784718
20.293520; 39891.533187; 682.005725
20.353560; 39932.480811; 804.368845
20.413600; 39980.775116; 873.871409
20.473640; 40033.242355; 941.816982
20.533680; 40089.789047; 1010.638705
20.593720; 40150.467795; 954.128041
20.653760; 40207.753643; 856.465262
20.713800; 40259.175817; 727.471325
20.773840; 40302.853195; 628.268669
20.833880; 40340.574446; 598.865631
20.893920; 40376.530338; 618.955055
20.953960; 40413.692400; 700.633916
21.014000; 40455.758460; 832.473461
21.074040; 40505.740167; 910.349500
21.134080; 40560.397551; 918.263947
21.194120; 40615.530118; 887.222893
21.254160; 40668.798981; 844.625389
21.314200; 40719.510289; 825.598094
21.374240; 40769.079199; 751.967114
21.434280; 40814.227304; 697.282331
21.494320; 40856.092135; 681.903969
21.554360; 40897.033650; 711.833413
21.614400; 40939.772128; 793.684881
21.674440; 40987.424968; 850.755267
21.734480; 41038.504314; 835.538725
21.794520; 41088.670059; 799.081145
21.854560; 41136.646891; 773.739239
21.914600; 41183.102195; 727.583522
21.974640; 41226.786310; 678.232038
22.034680; 41267.507361; 697.692559
22.094720; 41309.396823; 732.238430
22.154760; 41353.360418; 754.838197
22.214800; 41398.680903; 839.250018
22.274840; 41449.069474; 858.030234
22.334880; 41500.585610; 764.437315
22.394920; 41546.482426; 592.229151
22.454960; 41582.039864; 538.152752
22.515000; 41614.350555; 581.865021
22.575040; 41649.285731; 674.993544
22.635080; 41689.812344; 739.640601
22.695120; 41734.220365; 757.808431
22.755160; 41779.719184; 724.452373
22.815200; 41823.215304; 699.251983
22.875240; 41865.198393; 764.206139
22.935280; 41911.081330; 793.245718
22.995320; 41958.707803; 786.775814
23.055360; 42005.945823; 802.993303
23.115400; 42054.157540; 847.591243
23.175440; 42105.046919; 888.767680
23.235480; 42158.408530; 850.903573
23.295520; 42209.496781; 815.648737
23.355560; 42258.468331; 781.232865
23.415600; 42305.373552; 679.794699
23.475640; 42346.188426; 605.566307
23.535680; 42382.546627; 669.560424
23.595720; 42422.747035; 772.311924
23.655760; 42469.116643; 772.304242
23.715800; 42515.485789; 711.221105
23.775840; 42558.187505; 679.716317
23.835880; 42598.997672; 777.978200
23.895920; 42645.707483; 944.062146
23.955960; 42702.388975; 986.421142
24.016000; 42761.613700; 856.974545
24.076040; 42813.066452; 680.041206
24.136080; 42853.896126; 589.963082
24.196120; 42889.317509; 633.257215
24.256160; 42927.338272; 739.467456
24.316200; 42971.735898; 796.474495
24.376240; 43019.556227; 801.700643
24.436280; 43067.690334; 756.654362
24.496320; 43113.119862; 736.791777
24.556360; 43157.356840; 803.551612
24.616400; 43205.602079; 889.013559
24.676440; 43258.978453; 935.458077
24.736480; 43315.143356; 904.854639
24.796520; 43369.470828; 743.813559
24.856560; 43414.129394; 506.674273
24.916600; 43444.550118; 351.898132
24.976640; 43465.678081; 419.344080
25.036680; 43490.855500; 591.575292
25.096720; 43526.373681; 735.846339
25.156760; 43570.553895; 804.363844
25.216800; 43618.847900; 792.391473
25.276840; 43666.423084; 695.190181
25.336880; 43708.162302; 625.614238
25.396920; 43745.724181; 688.217673
25.456960; 43787.044770; 801.148342
25.517000; 43835.145717; 824.515565
25.577040; 43884.649631; 886.514234
25.637080; 43937.875946; 970.031752
25.697120; 43996.116652; 964.177392
25.757160; 44054.005863; 861.535319
25.817200; 44105.732443; 753.798666
25.877240; 44150.990515; 644.147385
25.937280; 44189.665124; 529.391374
25.997320; 44221.449782; 414.603504
26.057360; 44246.342577; 433.529901
26.117400; 44272.371712; 585.780091
26.177440; 44307.541949; 793.710950
26.237480; 44355.196354; 913.820960
26.297520; 44410.062165; 826.632432
26.357560; 44459.693176; 669.773162
26.417600; 44499.906356; 617.266410
26.477640; 44536.967032; 638.669843
26.537680; 44575.312769; 692.271213
26.597720; 44616.876733; 747.033307
26.657760; 44661.728612; 808.266126
26.717800; 44710.256911; 890.245827
26.777840; 44763.707270; 946.064728
26.837880; 44820.508996; 986.924187
26.897920; 44879.763924; 948.359935
26.957960; 44936.703455; 907.866751
27.018000; 44991.211775; 872.374723
27.078040; 45043.589153; 850.305271
27.138080; 45094.641482; 776.327030
27.198120; 45141.252156; 693.968200
27.258160; 45182.918007; 671.296758
27.318200; 45223.222664; 705.787594
27.378240; 45265.598152; 733.154966
27.438280; 45309.616776; 667.679974
27.498320; 45349.704281; 550.526192
27.558360; 45382.757874; 509.533426
27.618400; 45413.350261; 649.103068
27.678440; 45452.322409; 758.731348
27.738480; 45497.876639; 718.249237
27.798520; 45541.000323; 587.669667
27.858560; 45576.284010; 541.379859
27.918600; 45608.788457; 604.001634
27.978640; 45645.052715; 672.633010
28.038680; 45685.437601; 586.250768
28.098720; 45720.636097; 461.486352
28.158760; 45748.343738; 488.804537
28.218800; 45777.691562; 690.270842
28.278840; 45819.135423; 854.979462
28.338880; 45870.468390; 891.819693
28.398920; 45924.013245; 819.505154
28.458960; 45973.216334; 712.345378
28.519000; 46015.985551; 664.125909
28.579040; 46055.859670; 632.915475
28.639080; 46093.859915; 558.545273
28.699120; 46127.394974; 453.204916
28.759160; 46154.605397; 399.862688
28.819200; 46178.613153; 412.177024
28.879240; 46203.360261; 530.168088
28.939280; 46235.191553; 684.119000
28.999320; 46276.266058; 785.656089
29.059360; 46323.436849; 778.642945
29.119400; 46370.186572; 750.145073
29.179440; 46415.225282; 725.138309
29.239480; 46458.762586; 747.154167
29.299520; 46503.621722; 794.915951
29.359560; 46551.348476; 743.296805
29.419600; 46595.976016; 592.961804
29.479640; 46631.577443; 468.932218
29.539680; 46659.732133; 468.292762
29.599720; 46687.848431; 611.333417
29.659760; 46724.552889; 718.133833
29.719800; 46767.669644; 765.858613
29.779840; 46813.651796; 711.393835
29.839880; 46856.363881; 714.793228
29.899920; 46899.280067; 791.728519
29.959960; 46946.815447; 823.812881
30.020000; 46996.277172; 798.143679
30.080040; 47044.197719; 708.853222
30.140080; 47086.757266; 659.005060
30.200120; 47126.323930; 680.758884
30.260160; 47167.196694; 696.540815
30.320200; 47209.017004; 723.502909
30.380240; 47252.456119; 798.597862
30.440280; 47300.403934; 759.759373
30.500320; 47346.019887; 677.678368
30.560360; 47386.707696; 596.663685
30.620400; 47422.531384; 649.594204
30.680440; 47461.533020; 778.243748
30.740480; 47508.258775; 800.234339
30.800520; 47556.304844; 684.318306
30.860560; 47597.391315; 534.752333
30.920600; 47629.497845; 474.453835
30.980640; 47657.984054; 504.971409
31.040680; 47688.302537; 549.934186
31.100720; 47721.320586; 612.122774
31.160760; 47758.072437; 619.914546
31.220800; 47795.292106; 592.939660
31.280840; 47830.892203; 537.033988
31.340880; 47863.135724; 548.912273
31.400920; 47896.092417; 613.631445
31.460960; 47932.934849; 628.286680
31.521000; 47970.657181; 569.781908
31.581040; 48004.866887; 537.343260
31.641080; 48037.128976; 662.959462
31.701120; 48076.933062; 866.279505
31.761160; 48128.944484; 937.069290
31.821200; 48185.206124; 752.320322
31.881240; 48230.375436; 516.267118
31.941280; 48261.372114; 429.156980
32.001320; 48287.138699; 608.355731
32.061360; 48323.664377; 840.414499
32.121400; 48374.122863; 913.602842
32.181440; 48428.975578; 868.968191
32.241480; 48481.148428; 791.651357
32.301520; 48528.679176; 776.110153
32.361560; 48575.276829; 783.247293
32.421600; 48622.302997; 803.934150
32.481640; 48670.571203; 805.215268
32.541680; 48718.916328; 773.351557
32.601720; 48765.348355; 689.512139
32.661760; 48806.746664; 616.810273
32.721800; 48843.779953; 524.511994
32.781840; 48875.271653; 500.321425
32.841880; 48905.310951; 583.203286
32.901920; 48940.326477; 687.850429
32.961960; 48981.625016; 782.393886
33.022000; 49028.599945; 820.539046
33.082040; 49077.865110; 837.650302
33.142080; 49128.157634; 831.026570
33.202120; 49178.052469; 830.699738
